# Pulseq sequence file
# Created by PyPulseq

[VERSION]
major 1
minor 4
revision 0

[DEFINITIONS]
AdcRasterTime 1e-06 
BlockDurationRaster 1e-06 
GradientRasterTime 1e-06 
Name se_ptb 
RadiofrequencyRasterTime 1e-06 
TotalDuration 30 

# Format of blocks:
# NUM DUR RF  GX  GY  GZ  ADC  EXT
[BLOCKS]
  1 420   1   0   0   0  0  0
  2 2700   0   1   0   0  0  0
  3 2880   0   0   0   0  0  0
  4 420   2   0   0   0  0  0
  5 2700   0   0   2   3  0  0
  6 400   0   0   0   0  0  0
  7 5400   0   4   0   0  1  0
  8 2700   0   0   5   3  0  0
  9 380   0   0   0   0  0  0
 10 420   2   0   0   0  0  0
 11 2700   0   0   6   3  0  0
 12 400   0   0   0   0  0  0
 13 5400   0   4   0   0  1  0
 14 2700   0   0   7   3  0  0
 15 380   0   0   0   0  0  0
 16 420   2   0   0   0  0  0
 17 2700   0   0   8   3  0  0
 18 400   0   0   0   0  0  0
 19 5400   0   4   0   0  1  0
 20 2700   0   0   9   3  0  0
 21 380   0   0   0   0  0  0
 22 420   2   0   0   0  0  0
 23 2700   0   0  10   3  0  0
 24 400   0   0   0   0  0  0
 25 5400   0   4   0   0  1  0
 26 2700   0   0  11   3  0  0
 27 380   0   0   0   0  0  0
 28 420   2   0   0   0  0  0
 29 2700   0   0  12   3  0  0
 30 400   0   0   0   0  0  0
 31 5400   0   4   0   0  1  0
 32 2700   0   0  13   3  0  0
 33 380   0   0   0   0  0  0
 34 420   2   0   0   0  0  0
 35 2700   0   0  14   3  0  0
 36 400   0   0   0   0  0  0
 37 5400   0   4   0   0  1  0
 38 2700   0   0  15   3  0  0
 39 380   0   0   0   0  0  0
 40 420   2   0   0   0  0  0
 41 2700   0   0  16   3  0  0
 42 400   0   0   0   0  0  0
 43 5400   0   4   0   0  1  0
 44 2700   0   0  17   3  0  0
 45 380   0   0   0   0  0  0
 46 1910000   0   0   0   0  0  0
 47 420   1   0   0   0  0  0
 48 2700   0   1   0   0  0  0
 49 2880   0   0   0   0  0  0
 50 420   2   0   0   0  0  0
 51 2700   0   0   5   3  0  0
 52 400   0   0   0   0  0  0
 53 5400   0   4   0   0  1  0
 54 2700   0   0   2   3  0  0
 55 380   0   0   0   0  0  0
 56 420   2   0   0   0  0  0
 57 2700   0   0  18   3  0  0
 58 400   0   0   0   0  0  0
 59 5400   0   4   0   0  1  0
 60 2700   0   0  19   3  0  0
 61 380   0   0   0   0  0  0
 62 420   2   0   0   0  0  0
 63 2700   0   0   9   3  0  0
 64 400   0   0   0   0  0  0
 65 5400   0   4   0   0  1  0
 66 2700   0   0   8   3  0  0
 67 380   0   0   0   0  0  0
 68 420   2   0   0   0  0  0
 69 2700   0   0  20   3  0  0
 70 400   0   0   0   0  0  0
 71 5400   0   4   0   0  1  0
 72 2700   0   0  21   3  0  0
 73 380   0   0   0   0  0  0
 74 420   2   0   0   0  0  0
 75 2700   0   0  13   3  0  0
 76 400   0   0   0   0  0  0
 77 5400   0   4   0   0  1  0
 78 2700   0   0  12   3  0  0
 79 380   0   0   0   0  0  0
 80 420   2   0   0   0  0  0
 81 2700   0   0  22   3  0  0
 82 400   0   0   0   0  0  0
 83 5400   0   4   0   0  1  0
 84 2700   0   0  23   3  0  0
 85 380   0   0   0   0  0  0
 86 420   2   0   0   0  0  0
 87 2700   0   0  17   3  0  0
 88 400   0   0   0   0  0  0
 89 5400   0   4   0   0  1  0
 90 2700   0   0  16   3  0  0
 91 380   0   0   0   0  0  0
 92 1910000   0   0   0   0  0  0
 93 420   1   0   0   0  0  0
 94 2700   0   1   0   0  0  0
 95 2880   0   0   0   0  0  0
 96 420   2   0   0   0  0  0
 97 2700   0   0  24   3  0  0
 98 400   0   0   0   0  0  0
 99 5400   0   4   0   0  1  0
100 2700   0   0  25   3  0  0
101 380   0   0   0   0  0  0
102 420   2   0   0   0  0  0
103 2700   0   0  19   3  0  0
104 400   0   0   0   0  0  0
105 5400   0   4   0   0  1  0
106 2700   0   0  18   3  0  0
107 380   0   0   0   0  0  0
108 420   2   0   0   0  0  0
109 2700   0   0  26   3  0  0
110 400   0   0   0   0  0  0
111 5400   0   4   0   0  1  0
112 2700   0   0  27   3  0  0
113 380   0   0   0   0  0  0
114 420   2   0   0   0  0  0
115 2700   0   0  21   3  0  0
116 400   0   0   0   0  0  0
117 5400   0   4   0   0  1  0
118 2700   0   0  20   3  0  0
119 380   0   0   0   0  0  0
120 420   2   0   0   0  0  0
121 2700   0   0  28   3  0  0
122 400   0   0   0   0  0  0
123 5400   0   4   0   0  1  0
124 2700   0   0  29   3  0  0
125 380   0   0   0   0  0  0
126 420   2   0   0   0  0  0
127 2700   0   0  23   3  0  0
128 400   0   0   0   0  0  0
129 5400   0   4   0   0  1  0
130 2700   0   0  22   3  0  0
131 380   0   0   0   0  0  0
132 420   2   0   0   0  0  0
133 2700   0   0  30   3  0  0
134 400   0   0   0   0  0  0
135 5400   0   4   0   0  1  0
136 2700   0   0  31   3  0  0
137 380   0   0   0   0  0  0
138 1910000   0   0   0   0  0  0
139 420   1   0   0   0  0  0
140 2700   0   1   0   0  0  0
141 2880   0   0   0   0  0  0
142 420   2   0   0   0  0  0
143 2700   0   0  25   3  0  0
144 400   0   0   0   0  0  0
145 5400   0   4   0   0  1  0
146 2700   0   0  24   3  0  0
147 380   0   0   0   0  0  0
148 420   2   0   0   0  0  0
149 2700   0   0  32   3  0  0
150 400   0   0   0   0  0  0
151 5400   0   4   0   0  1  0
152 2700   0   0  33   3  0  0
153 380   0   0   0   0  0  0
154 420   2   0   0   0  0  0
155 2700   0   0  27   3  0  0
156 400   0   0   0   0  0  0
157 5400   0   4   0   0  1  0
158 2700   0   0  26   3  0  0
159 380   0   0   0   0  0  0
160 420   2   0   0   0  0  0
161 2700   0   0  34   3  0  0
162 400   0   0   0   0  0  0
163 5400   0   4   0   0  1  0
164 2700   0   0  35   3  0  0
165 380   0   0   0   0  0  0
166 420   2   0   0   0  0  0
167 2700   0   0  29   3  0  0
168 400   0   0   0   0  0  0
169 5400   0   4   0   0  1  0
170 2700   0   0  28   3  0  0
171 380   0   0   0   0  0  0
172 420   2   0   0   0  0  0
173 2700   0   0  36   3  0  0
174 400   0   0   0   0  0  0
175 5400   0   4   0   0  1  0
176 2700   0   0  37   3  0  0
177 380   0   0   0   0  0  0
178 420   2   0   0   0  0  0
179 2700   0   0  31   3  0  0
180 400   0   0   0   0  0  0
181 5400   0   4   0   0  1  0
182 2700   0   0  30   3  0  0
183 380   0   0   0   0  0  0
184 1910000   0   0   0   0  0  0
185 420   1   0   0   0  0  0
186 2700   0   1   0   0  0  0
187 2880   0   0   0   0  0  0
188 420   2   0   0   0  0  0
189 2700   0   0  38   3  0  0
190 400   0   0   0   0  0  0
191 5400   0   4   0   0  1  0
192 2700   0   0  39   3  0  0
193 380   0   0   0   0  0  0
194 420   2   0   0   0  0  0
195 2700   0   0  33   3  0  0
196 400   0   0   0   0  0  0
197 5400   0   4   0   0  1  0
198 2700   0   0  32   3  0  0
199 380   0   0   0   0  0  0
200 420   2   0   0   0  0  0
201 2700   0   0  40   3  0  0
202 400   0   0   0   0  0  0
203 5400   0   4   0   0  1  0
204 2700   0   0  41   3  0  0
205 380   0   0   0   0  0  0
206 420   2   0   0   0  0  0
207 2700   0   0  35   3  0  0
208 400   0   0   0   0  0  0
209 5400   0   4   0   0  1  0
210 2700   0   0  34   3  0  0
211 380   0   0   0   0  0  0
212 420   2   0   0   0  0  0
213 2700   0   0  42   3  0  0
214 400   0   0   0   0  0  0
215 5400   0   4   0   0  1  0
216 2700   0   0  43   3  0  0
217 380   0   0   0   0  0  0
218 420   2   0   0   0  0  0
219 2700   0   0  37   3  0  0
220 400   0   0   0   0  0  0
221 5400   0   4   0   0  1  0
222 2700   0   0  36   3  0  0
223 380   0   0   0   0  0  0
224 420   2   0   0   0  0  0
225 2700   0   0  44   3  0  0
226 400   0   0   0   0  0  0
227 5400   0   4   0   0  1  0
228 2700   0   0  45   3  0  0
229 380   0   0   0   0  0  0
230 1910000   0   0   0   0  0  0
231 420   1   0   0   0  0  0
232 2700   0   1   0   0  0  0
233 2880   0   0   0   0  0  0
234 420   2   0   0   0  0  0
235 2700   0   0  39   3  0  0
236 400   0   0   0   0  0  0
237 5400   0   4   0   0  1  0
238 2700   0   0  38   3  0  0
239 380   0   0   0   0  0  0
240 420   2   0   0   0  0  0
241 2700   0   0  46   3  0  0
242 400   0   0   0   0  0  0
243 5400   0   4   0   0  1  0
244 2700   0   0  47   3  0  0
245 380   0   0   0   0  0  0
246 420   2   0   0   0  0  0
247 2700   0   0  41   3  0  0
248 400   0   0   0   0  0  0
249 5400   0   4   0   0  1  0
250 2700   0   0  40   3  0  0
251 380   0   0   0   0  0  0
252 420   2   0   0   0  0  0
253 2700   0   0  48   3  0  0
254 400   0   0   0   0  0  0
255 5400   0   4   0   0  1  0
256 2700   0   0  49   3  0  0
257 380   0   0   0   0  0  0
258 420   2   0   0   0  0  0
259 2700   0   0  43   3  0  0
260 400   0   0   0   0  0  0
261 5400   0   4   0   0  1  0
262 2700   0   0  42   3  0  0
263 380   0   0   0   0  0  0
264 420   2   0   0   0  0  0
265 2700   0   0  50   3  0  0
266 400   0   0   0   0  0  0
267 5400   0   4   0   0  1  0
268 2700   0   0  51   3  0  0
269 380   0   0   0   0  0  0
270 420   2   0   0   0  0  0
271 2700   0   0  45   3  0  0
272 400   0   0   0   0  0  0
273 5400   0   4   0   0  1  0
274 2700   0   0  44   3  0  0
275 380   0   0   0   0  0  0
276 1910000   0   0   0   0  0  0
277 420   1   0   0   0  0  0
278 2700   0   1   0   0  0  0
279 2880   0   0   0   0  0  0
280 420   2   0   0   0  0  0
281 2700   0   0  52   3  0  0
282 400   0   0   0   0  0  0
283 5400   0   4   0   0  1  0
284 2700   0   0  53   3  0  0
285 380   0   0   0   0  0  0
286 420   2   0   0   0  0  0
287 2700   0   0  47   3  0  0
288 400   0   0   0   0  0  0
289 5400   0   4   0   0  1  0
290 2700   0   0  46   3  0  0
291 380   0   0   0   0  0  0
292 420   2   0   0   0  0  0
293 2700   0   0  54   3  0  0
294 400   0   0   0   0  0  0
295 5400   0   4   0   0  1  0
296 2700   0   0  55   3  0  0
297 380   0   0   0   0  0  0
298 420   2   0   0   0  0  0
299 2700   0   0  49   3  0  0
300 400   0   0   0   0  0  0
301 5400   0   4   0   0  1  0
302 2700   0   0  48   3  0  0
303 380   0   0   0   0  0  0
304 420   2   0   0   0  0  0
305 2700   0   0  56   3  0  0
306 400   0   0   0   0  0  0
307 5400   0   4   0   0  1  0
308 2700   0   0  57   3  0  0
309 380   0   0   0   0  0  0
310 420   2   0   0   0  0  0
311 2700   0   0  51   3  0  0
312 400   0   0   0   0  0  0
313 5400   0   4   0   0  1  0
314 2700   0   0  50   3  0  0
315 380   0   0   0   0  0  0
316 420   2   0   0   0  0  0
317 2700   0   0  58   3  0  0
318 400   0   0   0   0  0  0
319 5400   0   4   0   0  1  0
320 2700   0   0  59   3  0  0
321 380   0   0   0   0  0  0
322 1910000   0   0   0   0  0  0
323 420   1   0   0   0  0  0
324 2700   0   1   0   0  0  0
325 2880   0   0   0   0  0  0
326 420   2   0   0   0  0  0
327 2700   0   0  53   3  0  0
328 400   0   0   0   0  0  0
329 5400   0   4   0   0  1  0
330 2700   0   0  52   3  0  0
331 380   0   0   0   0  0  0
332 420   2   0   0   0  0  0
333 2700   0   0  60   3  0  0
334 400   0   0   0   0  0  0
335 5400   0   4   0   0  1  0
336 2700   0   0  61   3  0  0
337 380   0   0   0   0  0  0
338 420   2   0   0   0  0  0
339 2700   0   0  55   3  0  0
340 400   0   0   0   0  0  0
341 5400   0   4   0   0  1  0
342 2700   0   0  54   3  0  0
343 380   0   0   0   0  0  0
344 420   2   0   0   0  0  0
345 2700   0   0  62   3  0  0
346 400   0   0   0   0  0  0
347 5400   0   4   0   0  1  0
348 2700   0   0  63   3  0  0
349 380   0   0   0   0  0  0
350 420   2   0   0   0  0  0
351 2700   0   0  57   3  0  0
352 400   0   0   0   0  0  0
353 5400   0   4   0   0  1  0
354 2700   0   0  56   3  0  0
355 380   0   0   0   0  0  0
356 420   2   0   0   0  0  0
357 2700   0   0  64   3  0  0
358 400   0   0   0   0  0  0
359 5400   0   4   0   0  1  0
360 2700   0   0  65   3  0  0
361 380   0   0   0   0  0  0
362 420   2   0   0   0  0  0
363 2700   0   0  59   3  0  0
364 400   0   0   0   0  0  0
365 5400   0   4   0   0  1  0
366 2700   0   0  58   3  0  0
367 380   0   0   0   0  0  0
368 1910000   0   0   0   0  0  0
369 420   1   0   0   0  0  0
370 2700   0   1   0   0  0  0
371 2880   0   0   0   0  0  0
372 420   2   0   0   0  0  0
373 2700   0   0  66   3  0  0
374 400   0   0   0   0  0  0
375 5400   0   4   0   0  1  0
376 2700   0   0  67   3  0  0
377 380   0   0   0   0  0  0
378 420   2   0   0   0  0  0
379 2700   0   0  61   3  0  0
380 400   0   0   0   0  0  0
381 5400   0   4   0   0  1  0
382 2700   0   0  60   3  0  0
383 380   0   0   0   0  0  0
384 420   2   0   0   0  0  0
385 2700   0   0  68   3  0  0
386 400   0   0   0   0  0  0
387 5400   0   4   0   0  1  0
388 2700   0   0  69   3  0  0
389 380   0   0   0   0  0  0
390 420   2   0   0   0  0  0
391 2700   0   0  63   3  0  0
392 400   0   0   0   0  0  0
393 5400   0   4   0   0  1  0
394 2700   0   0  62   3  0  0
395 380   0   0   0   0  0  0
396 420   2   0   0   0  0  0
397 2700   0   0  70   3  0  0
398 400   0   0   0   0  0  0
399 5400   0   4   0   0  1  0
400 2700   0   0  71   3  0  0
401 380   0   0   0   0  0  0
402 420   2   0   0   0  0  0
403 2700   0   0  65   3  0  0
404 400   0   0   0   0  0  0
405 5400   0   4   0   0  1  0
406 2700   0   0  64   3  0  0
407 380   0   0   0   0  0  0
408 420   2   0   0   0  0  0
409 2700   0   0  72   3  0  0
410 400   0   0   0   0  0  0
411 5400   0   4   0   0  1  0
412 2700   0   0  73   3  0  0
413 380   0   0   0   0  0  0
414 1910000   0   0   0   0  0  0
415 420   1   0   0   0  0  0
416 2700   0   1   0   0  0  0
417 2880   0   0   0   0  0  0
418 420   2   0   0   0  0  0
419 2700   0   0  67   3  0  0
420 400   0   0   0   0  0  0
421 5400   0   4   0   0  1  0
422 2700   0   0  66   3  0  0
423 380   0   0   0   0  0  0
424 420   2   0   0   0  0  0
425 2700   0   0  74   3  0  0
426 400   0   0   0   0  0  0
427 5400   0   4   0   0  1  0
428 2700   0   0  75   3  0  0
429 380   0   0   0   0  0  0
430 420   2   0   0   0  0  0
431 2700   0   0  69   3  0  0
432 400   0   0   0   0  0  0
433 5400   0   4   0   0  1  0
434 2700   0   0  68   3  0  0
435 380   0   0   0   0  0  0
436 420   2   0   0   0  0  0
437 2700   0   0  76   3  0  0
438 400   0   0   0   0  0  0
439 5400   0   4   0   0  1  0
440 2700   0   0  77   3  0  0
441 380   0   0   0   0  0  0
442 420   2   0   0   0  0  0
443 2700   0   0  71   3  0  0
444 400   0   0   0   0  0  0
445 5400   0   4   0   0  1  0
446 2700   0   0  70   3  0  0
447 380   0   0   0   0  0  0
448 420   2   0   0   0  0  0
449 2700   0   0  78   3  0  0
450 400   0   0   0   0  0  0
451 5400   0   4   0   0  1  0
452 2700   0   0  79   3  0  0
453 380   0   0   0   0  0  0
454 420   2   0   0   0  0  0
455 2700   0   0  73   3  0  0
456 400   0   0   0   0  0  0
457 5400   0   4   0   0  1  0
458 2700   0   0  72   3  0  0
459 380   0   0   0   0  0  0
460 1910000   0   0   0   0  0  0
461 420   1   0   0   0  0  0
462 2700   0   1   0   0  0  0
463 2880   0   0   0   0  0  0
464 420   2   0   0   0  0  0
465 2700   0   0  80   3  0  0
466 400   0   0   0   0  0  0
467 5400   0   4   0   0  1  0
468 2700   0   0  81   3  0  0
469 380   0   0   0   0  0  0
470 420   2   0   0   0  0  0
471 2700   0   0  75   3  0  0
472 400   0   0   0   0  0  0
473 5400   0   4   0   0  1  0
474 2700   0   0  74   3  0  0
475 380   0   0   0   0  0  0
476 420   2   0   0   0  0  0
477 2700   0   0  82   3  0  0
478 400   0   0   0   0  0  0
479 5400   0   4   0   0  1  0
480 2700   0   0  83   3  0  0
481 380   0   0   0   0  0  0
482 420   2   0   0   0  0  0
483 2700   0   0  77   3  0  0
484 400   0   0   0   0  0  0
485 5400   0   4   0   0  1  0
486 2700   0   0  76   3  0  0
487 380   0   0   0   0  0  0
488 420   2   0   0   0  0  0
489 2700   0   0  84   3  0  0
490 400   0   0   0   0  0  0
491 5400   0   4   0   0  1  0
492 2700   0   0  85   3  0  0
493 380   0   0   0   0  0  0
494 420   2   0   0   0  0  0
495 2700   0   0  79   3  0  0
496 400   0   0   0   0  0  0
497 5400   0   4   0   0  1  0
498 2700   0   0  78   3  0  0
499 380   0   0   0   0  0  0
500 1922000   0   0   0   0  0  0
501 420   1   0   0   0  0  0
502 2700   0   1   0   0  0  0
503 2880   0   0   0   0  0  0
504 420   2   0   0   0  0  0
505 2700   0   0  81   3  0  0
506 400   0   0   0   0  0  0
507 5400   0   4   0   0  1  0
508 2700   0   0  80   3  0  0
509 380   0   0   0   0  0  0
510 420   2   0   0   0  0  0
511 2700   0   0  86   3  0  0
512 400   0   0   0   0  0  0
513 5400   0   4   0   0  1  0
514 2700   0   0  87   3  0  0
515 380   0   0   0   0  0  0
516 420   2   0   0   0  0  0
517 2700   0   0  83   3  0  0
518 400   0   0   0   0  0  0
519 5400   0   4   0   0  1  0
520 2700   0   0  82   3  0  0
521 380   0   0   0   0  0  0
522 420   2   0   0   0  0  0
523 2700   0   0  88   3  0  0
524 400   0   0   0   0  0  0
525 5400   0   4   0   0  1  0
526 2700   0   0  89   3  0  0
527 380   0   0   0   0  0  0
528 420   2   0   0   0  0  0
529 2700   0   0  85   3  0  0
530 400   0   0   0   0  0  0
531 5400   0   4   0   0  1  0
532 2700   0   0  84   3  0  0
533 380   0   0   0   0  0  0
534 420   2   0   0   0  0  0
535 2700   0   0  90   3  0  0
536 400   0   0   0   0  0  0
537 5400   0   4   0   0  1  0
538 2700   0   0  91   3  0  0
539 380   0   0   0   0  0  0
540 1922000   0   0   0   0  0  0
541 420   1   0   0   0  0  0
542 2700   0   1   0   0  0  0
543 2880   0   0   0   0  0  0
544 420   2   0   0   0  0  0
545 2700   0   0  92   3  0  0
546 400   0   0   0   0  0  0
547 5400   0   4   0   0  1  0
548 2700   0   0  93   3  0  0
549 380   0   0   0   0  0  0
550 420   2   0   0   0  0  0
551 2700   0   0  87   3  0  0
552 400   0   0   0   0  0  0
553 5400   0   4   0   0  1  0
554 2700   0   0  86   3  0  0
555 380   0   0   0   0  0  0
556 420   2   0   0   0  0  0
557 2700   0   0  94   3  0  0
558 400   0   0   0   0  0  0
559 5400   0   4   0   0  1  0
560 2700   0   0  95   3  0  0
561 380   0   0   0   0  0  0
562 420   2   0   0   0  0  0
563 2700   0   0  89   3  0  0
564 400   0   0   0   0  0  0
565 5400   0   4   0   0  1  0
566 2700   0   0  88   3  0  0
567 380   0   0   0   0  0  0
568 420   2   0   0   0  0  0
569 2700   0   0  96   3  0  0
570 400   0   0   0   0  0  0
571 5400   0   4   0   0  1  0
572 2700   0   0  97   3  0  0
573 380   0   0   0   0  0  0
574 420   2   0   0   0  0  0
575 2700   0   0  91   3  0  0
576 400   0   0   0   0  0  0
577 5400   0   4   0   0  1  0
578 2700   0   0  90   3  0  0
579 380   0   0   0   0  0  0
580 1922000   0   0   0   0  0  0
581 420   1   0   0   0  0  0
582 2700   0   1   0   0  0  0
583 2880   0   0   0   0  0  0
584 420   2   0   0   0  0  0
585 2700   0   0  93   3  0  0
586 400   0   0   0   0  0  0
587 5400   0   4   0   0  1  0
588 2700   0   0  92   3  0  0
589 380   0   0   0   0  0  0
590 420   2   0   0   0  0  0
591 2700   0   0  98   3  0  0
592 400   0   0   0   0  0  0
593 5400   0   4   0   0  1  0
594 2700   0   0  99   3  0  0
595 380   0   0   0   0  0  0
596 420   2   0   0   0  0  0
597 2700   0   0  95   3  0  0
598 400   0   0   0   0  0  0
599 5400   0   4   0   0  1  0
600 2700   0   0  94   3  0  0
601 380   0   0   0   0  0  0
602 420   2   0   0   0  0  0
603 2700   0   0 100   3  0  0
604 400   0   0   0   0  0  0
605 5400   0   4   0   0  1  0
606 2700   0   0 101   3  0  0
607 380   0   0   0   0  0  0
608 420   2   0   0   0  0  0
609 2700   0   0  97   3  0  0
610 400   0   0   0   0  0  0
611 5400   0   4   0   0  1  0
612 2700   0   0  96   3  0  0
613 380   0   0   0   0  0  0
614 420   2   0   0   0  0  0
615 2700   0   0 102   3  0  0
616 400   0   0   0   0  0  0
617 5400   0   4   0   0  1  0
618 2700   0   0 103   3  0  0
619 380   0   0   0   0  0  0
620 1922000   0   0   0   0  0  0
621 420   1   0   0   0  0  0
622 2700   0   1   0   0  0  0
623 2880   0   0   0   0  0  0
624 420   2   0   0   0  0  0
625 2700   0   0   7   3  0  0
626 400   0   0   0   0  0  0
627 5400   0   4   0   0  1  0
628 2700   0   0   6   3  0  0
629 380   0   0   0   0  0  0
630 420   2   0   0   0  0  0
631 2700   0   0  99   3  0  0
632 400   0   0   0   0  0  0
633 5400   0   4   0   0  1  0
634 2700   0   0  98   3  0  0
635 380   0   0   0   0  0  0
636 420   2   0   0   0  0  0
637 2700   0   0  11   3  0  0
638 400   0   0   0   0  0  0
639 5400   0   4   0   0  1  0
640 2700   0   0  10   3  0  0
641 380   0   0   0   0  0  0
642 420   2   0   0   0  0  0
643 2700   0   0 101   3  0  0
644 400   0   0   0   0  0  0
645 5400   0   4   0   0  1  0
646 2700   0   0 100   3  0  0
647 380   0   0   0   0  0  0
648 420   2   0   0   0  0  0
649 2700   0   0  15   3  0  0
650 400   0   0   0   0  0  0
651 5400   0   4   0   0  1  0
652 2700   0   0  14   3  0  0
653 380   0   0   0   0  0  0
654 420   2   0   0   0  0  0
655 2700   0   0 103   3  0  0
656 400   0   0   0   0  0  0
657 5400   0   4   0   0  1  0
658 2700   0   0 102   3  0  0
659 380   0   0   0   0  0  0
660 1922000   0   0   0   0  0  0

# Format of RF events:
# id amplitude mag_id phase_id time_shape_id delay freq phase
# ..        Hz   ....     ....          ....    us   Hz   rad
[RF]
1          625 1 2 3 20 0 0
2         1250 1 2 3 20 0 1.5708

# Format of trapezoid gradients:
# id amplitude rise flat fall delay
# ..      Hz/m   us   us   us    us
[TRAP]
 1      94545.5 200 2300 200   0
 2       -90000 200 2300 200   0
 3           -0 200 2300 200   0
 4      90909.1 200 5000 200   0
 5        90000 200 2300 200   0
 6     -77272.7 200 2300 200   0
 7      77272.7 200 2300 200   0
 8      62727.3 200 2300 200   0
 9     -62727.3 200 2300 200   0
10        50000 200 2300 200   0
11       -50000 200 2300 200   0
12     -35454.5 200 2300 200   0
13      35454.5 200 2300 200   0
14      22727.3 200 2300 200   0
15     -22727.3 200 2300 200   0
16      8181.82 200 2300 200   0
17     -8181.82 200 2300 200   0
18      75454.5 200 2300 200   0
19     -75454.5 200 2300 200   0
20      48181.8 200 2300 200   0
21     -48181.8 200 2300 200   0
22      20909.1 200 2300 200   0
23     -20909.1 200 2300 200   0
24      88181.8 200 2300 200   0
25     -88181.8 200 2300 200   0
26      60909.1 200 2300 200   0
27     -60909.1 200 2300 200   0
28      33636.4 200 2300 200   0
29     -33636.4 200 2300 200   0
30     -6363.64 200 2300 200   0
31      6363.64 200 2300 200   0
32      73636.4 200 2300 200   0
33     -73636.4 200 2300 200   0
34      46363.6 200 2300 200   0
35     -46363.6 200 2300 200   0
36      19090.9 200 2300 200   0
37     -19090.9 200 2300 200   0
38     -86363.6 200 2300 200   0
39      86363.6 200 2300 200   0
40     -59090.9 200 2300 200   0
41      59090.9 200 2300 200   0
42     -31818.2 200 2300 200   0
43      31818.2 200 2300 200   0
44      4545.45 200 2300 200   0
45     -4545.45 200 2300 200   0
46      71818.2 200 2300 200   0
47     -71818.2 200 2300 200   0
48      44545.5 200 2300 200   0
49     -44545.5 200 2300 200   0
50      17272.7 200 2300 200   0
51     -17272.7 200 2300 200   0
52     -84545.5 200 2300 200   0
53      84545.5 200 2300 200   0
54     -57272.7 200 2300 200   0
55      57272.7 200 2300 200   0
56       -30000 200 2300 200   0
57        30000 200 2300 200   0
58      2727.27 200 2300 200   0
59     -2727.27 200 2300 200   0
60       -70000 200 2300 200   0
61        70000 200 2300 200   0
62     -42727.3 200 2300 200   0
63      42727.3 200 2300 200   0
64      15454.5 200 2300 200   0
65     -15454.5 200 2300 200   0
66     -82727.3 200 2300 200   0
67      82727.3 200 2300 200   0
68     -55454.5 200 2300 200   0
69      55454.5 200 2300 200   0
70     -28181.8 200 2300 200   0
71      28181.8 200 2300 200   0
72     -909.091 200 2300 200   0
73      909.091 200 2300 200   0
74     -68181.8 200 2300 200   0
75      68181.8 200 2300 200   0
76     -40909.1 200 2300 200   0
77      40909.1 200 2300 200   0
78      13636.4 200 2300 200   0
79     -13636.4 200 2300 200   0
80     -80909.1 200 2300 200   0
81      80909.1 200 2300 200   0
82     -53636.4 200 2300 200   0
83      53636.4 200 2300 200   0
84      26363.6 200 2300 200   0
85     -26363.6 200 2300 200   0
86      66363.6 200 2300 200   0
87     -66363.6 200 2300 200   0
88     -39090.9 200 2300 200   0
89      39090.9 200 2300 200   0
90      11818.2 200 2300 200   0
91     -11818.2 200 2300 200   0
92     -79090.9 200 2300 200   0
93      79090.9 200 2300 200   0
94     -51818.2 200 2300 200   0
95      51818.2 200 2300 200   0
96      24545.5 200 2300 200   0
97     -24545.5 200 2300 200   0
98     -64545.5 200 2300 200   0
99      64545.5 200 2300 200   0
100      37272.7 200 2300 200   0
101     -37272.7 200 2300 200   0
102        10000 200 2300 200   0
103       -10000 200 2300 200   0

# Format of ADC events:
# id num dwell delay freq phase
# ..  ..    ns    us   Hz   rad
[ADC]
1 5000 1000 200 0 0

# Sequence Shapes
[SHAPES]

shape_id 1
num_samples 2
1
1

shape_id 2
num_samples 2
0
0

shape_id 3
num_samples 2
0
400


[SIGNATURE]
# This is the hash of the Pulseq file, calculated right before the [SIGNATURE] section was added
# It can be reproduced/verified with md5sum if the file trimmed to the position right above [SIGNATURE]
# The new line character preceding [SIGNATURE] BELONGS to the signature (and needs to be stripped away for recalculating/verification)
Type md5
Hash b0af93ec7b7bcb1338a729ceb28fffd7
