# Pulseq sequence file
# Created by PyPulseq

[VERSION]
major 1
minor 4
revision 0

[DEFINITIONS]
AdcRasterTime 1e-07 
BlockDurationRaster 1e-05 
GradientRasterTime 1e-05 
Name se_ptb 
RadiofrequencyRasterTime 1e-06 
TotalDuration 87.663 

# Format of blocks:
# NUM DUR RF  GX  GY  GZ  ADC  EXT
[BLOCKS]
  1  60   1   0   0   0  0  0
  2 1360   0   0   0   0  0  0
  3  60   2   0   0   0  0  0
  4 2760   0   0   0   0  0  0
  5 176160   0   0   0   0  0  0
  6  60   2   0   0   0  0  0
  7 2760   0   0   0   0  0  0
  8 176160   0   0   0   0  0  0
  9  60   2   0   0   0  0  0
 10 2760   0   0   0   0  0  0
 11 176160   0   0   0   0  0  0
 12  60   2   0   0   0  0  0
 13 2760   0   0   0   0  0  0
 14 176160   0   0   0   0  0  0
 15  60   2   0   0   0  0  0
 16 2760   0   0   0   0  0  0
 17 176160   0   0   0   0  0  0
 18  60   2   0   0   0  0  0
 19 2760   0   0   0   0  0  0
 20 176160   0   0   0   0  0  0
 21  60   2   0   0   0  0  0
 22 2760   0   0   0   0  0  0
 23 176160   0   0   0   0  0  0
 24  60   2   0   0   0  0  0
 25 2760   0   0   0   0  0  0
 26 176160   0   0   0   0  0  0
 27  60   1   0   0   0  0  0
 28 1360   0   0   0   0  0  0
 29  60   2   0   0   0  0  0
 30 2760   0   0   0   0  0  0
 31 176160   0   0   0   0  0  0
 32  60   2   0   0   0  0  0
 33 2760   0   0   0   0  0  0
 34 176160   0   0   0   0  0  0
 35  60   2   0   0   0  0  0
 36 2760   0   0   0   0  0  0
 37 176160   0   0   0   0  0  0
 38  60   2   0   0   0  0  0
 39 2760   0   0   0   0  0  0
 40 176160   0   0   0   0  0  0
 41  60   2   0   0   0  0  0
 42 2760   0   0   0   0  0  0
 43 176160   0   0   0   0  0  0
 44  60   2   0   0   0  0  0
 45 2760   0   0   0   0  0  0
 46 176160   0   0   0   0  0  0
 47  60   2   0   0   0  0  0
 48 2760   0   0   0   0  0  0
 49 176160   0   0   0   0  0  0
 50  60   2   0   0   0  0  0
 51 2760   0   0   0   0  0  0
 52 176160   0   0   0   0  0  0
 53  60   1   0   0   0  0  0
 54 1360   0   0   0   0  0  0
 55  60   2   0   0   0  0  0
 56 2760   0   0   0   0  0  0
 57 176160   0   0   0   0  0  0
 58  60   2   0   0   0  0  0
 59 2760   0   0   0   0  0  0
 60 176160   0   0   0   0  0  0
 61  60   2   0   0   0  0  0
 62 2760   0   0   0   0  0  0
 63 176160   0   0   0   0  0  0
 64  60   2   0   0   0  0  0
 65 2760   0   0   0   0  0  0
 66 176160   0   0   0   0  0  0
 67  60   2   0   0   0  0  0
 68 2760   0   0   0   0  0  0
 69 176160   0   0   0   0  0  0
 70  60   2   0   0   0  0  0
 71 2760   0   0   0   0  0  0
 72 176160   0   0   0   0  0  0
 73  60   2   0   0   0  0  0
 74 2760   0   0   0   0  0  0
 75 176160   0   0   0   0  0  0
 76  60   2   0   0   0  0  0
 77 2760   0   0   0   0  0  0
 78 176160   0   0   0   0  0  0
 79  60   1   0   0   0  0  0
 80 1360   0   0   0   0  0  0
 81  60   2   0   0   0  0  0
 82 2760   0   0   0   0  0  0
 83 176160   0   0   0   0  0  0
 84  60   2   0   0   0  0  0
 85 2760   0   0   0   0  0  0
 86 176160   0   0   0   0  0  0
 87  60   2   0   0   0  0  0
 88 2760   0   0   0   0  0  0
 89 176160   0   0   0   0  0  0
 90  60   2   0   0   0  0  0
 91 2760   0   0   0   0  0  0
 92 176160   0   0   0   0  0  0
 93  60   2   0   0   0  0  0
 94 2760   0   0   0   0  0  0
 95 176160   0   0   0   0  0  0
 96  60   2   0   0   0  0  0
 97 2760   0   0   0   0  0  0
 98 176160   0   0   0   0  0  0
 99  60   2   0   0   0  0  0
100 2760   0   0   0   0  0  0
101 176160   0   0   0   0  0  0
102  60   2   0   0   0  0  0
103 2760   0   0   0   0  0  0
104 176160   0   0   0   0  0  0
105  60   1   0   0   0  0  0
106 1360   0   0   0   0  0  0
107  60   2   0   0   0  0  0
108 2760   0   0   0   0  0  0
109 176160   0   0   0   0  0  0
110  60   2   0   0   0  0  0
111 2760   0   0   0   0  0  0
112 176160   0   0   0   0  0  0
113  60   2   0   0   0  0  0
114 2760   0   0   0   0  0  0
115 176160   0   0   0   0  0  0
116  60   2   0   0   0  0  0
117 2760   0   0   0   0  0  0
118 176160   0   0   0   0  0  0
119  60   2   0   0   0  0  0
120 2760   0   0   0   0  0  0
121 176160   0   0   0   0  0  0
122  60   2   0   0   0  0  0
123 2760   0   0   0   0  0  0
124 176160   0   0   0   0  0  0
125  60   2   0   0   0  0  0
126 2760   0   0   0   0  0  0
127 176160   0   0   0   0  0  0
128  60   2   0   0   0  0  0
129 2760   0   0   0   0  0  0
130 176160   0   0   0   0  0  0
131  60   1   0   0   0  0  0
132 180   0   1   0   0  0  0
133 1160   0   0   0   0  0  0
134  60   2   0   0   0  0  0
135 180   0   0   2   3  0  0
136 1010   0   0   0   0  0  0
137 360   0   4   0   0  1  0
138 180   0   0   5   3  0  0
139 1010   0   0   0   0  0  0
140  60   2   0   0   0  0  0
141 180   0   0   6   3  0  0
142 1010   0   0   0   0  0  0
143 360   0   4   0   0  1  0
144 180   0   0   7   3  0  0
145 1010   0   0   0   0  0  0
146  60   2   0   0   0  0  0
147 180   0   0   8   3  0  0
148 1010   0   0   0   0  0  0
149 360   0   4   0   0  1  0
150 180   0   0   9   3  0  0
151 1010   0   0   0   0  0  0
152  60   2   0   0   0  0  0
153 180   0   0  10   3  0  0
154 1010   0   0   0   0  0  0
155 360   0   4   0   0  1  0
156 180   0   0  11   3  0  0
157 1010   0   0   0   0  0  0
158  60   2   0   0   0  0  0
159 180   0   0  12   3  0  0
160 1010   0   0   0   0  0  0
161 360   0   4   0   0  1  0
162 180   0   0  13   3  0  0
163 1010   0   0   0   0  0  0
164  60   2   0   0   0  0  0
165 180   0   0  14   3  0  0
166 1010   0   0   0   0  0  0
167 360   0   4   0   0  1  0
168 180   0   0  15   3  0  0
169 1010   0   0   0   0  0  0
170  60   2   0   0   0  0  0
171 180   0   0  16   3  0  0
172 1010   0   0   0   0  0  0
173 360   0   4   0   0  1  0
174 180   0   0  17   3  0  0
175 1010   0   0   0   0  0  0
176  60   2   0   0   0  0  0
177 180   0   0  18   3  0  0
178 1010   0   0   0   0  0  0
179 360   0   4   0   0  1  0
180 180   0   0  19   3  0  0
181 1010   0   0   0   0  0  0
182 176200   0   0   0   0  0  0
183  60   1   0   0   0  0  0
184 180   0   1   0   0  0  0
185 1160   0   0   0   0  0  0
186  60   2   0   0   0  0  0
187 180   0   0  20   3  0  0
188 1010   0   0   0   0  0  0
189 360   0   4   0   0  1  0
190 180   0   0  21   3  0  0
191 1010   0   0   0   0  0  0
192  60   2   0   0   0  0  0
193 180   0   0  22   3  0  0
194 1010   0   0   0   0  0  0
195 360   0   4   0   0  1  0
196 180   0   0  23   3  0  0
197 1010   0   0   0   0  0  0
198  60   2   0   0   0  0  0
199 180   0   0  24   3  0  0
200 1010   0   0   0   0  0  0
201 360   0   4   0   0  1  0
202 180   0   0  25   3  0  0
203 1010   0   0   0   0  0  0
204  60   2   0   0   0  0  0
205 180   0   0  26   3  0  0
206 1010   0   0   0   0  0  0
207 360   0   4   0   0  1  0
208 180   0   0  27   3  0  0
209 1010   0   0   0   0  0  0
210  60   2   0   0   0  0  0
211 180   0   0  28   3  0  0
212 1010   0   0   0   0  0  0
213 360   0   4   0   0  1  0
214 180   0   0  29   3  0  0
215 1010   0   0   0   0  0  0
216  60   2   0   0   0  0  0
217 180   0   0  30   3  0  0
218 1010   0   0   0   0  0  0
219 360   0   4   0   0  1  0
220 180   0   0  31   3  0  0
221 1010   0   0   0   0  0  0
222  60   2   0   0   0  0  0
223 180   0   0  32   3  0  0
224 1010   0   0   0   0  0  0
225 360   0   4   0   0  1  0
226 180   0   0  33   3  0  0
227 1010   0   0   0   0  0  0
228  60   2   0   0   0  0  0
229 180   0   0  34   3  0  0
230 1010   0   0   0   0  0  0
231 360   0   4   0   0  1  0
232 180   0   0  35   3  0  0
233 1010   0   0   0   0  0  0
234 176200   0   0   0   0  0  0
235  60   1   0   0   0  0  0
236 180   0   1   0   0  0  0
237 1160   0   0   0   0  0  0
238  60   2   0   0   0  0  0
239 180   0   0  36   3  0  0
240 1010   0   0   0   0  0  0
241 360   0   4   0   0  1  0
242 180   0   0  37   3  0  0
243 1010   0   0   0   0  0  0
244  60   2   0   0   0  0  0
245 180   0   0  38   3  0  0
246 1010   0   0   0   0  0  0
247 360   0   4   0   0  1  0
248 180   0   0  39   3  0  0
249 1010   0   0   0   0  0  0
250  60   2   0   0   0  0  0
251 180   0   0  40   3  0  0
252 1010   0   0   0   0  0  0
253 360   0   4   0   0  1  0
254 180   0   0  41   3  0  0
255 1010   0   0   0   0  0  0
256  60   2   0   0   0  0  0
257 180   0   0  42   3  0  0
258 1010   0   0   0   0  0  0
259 360   0   4   0   0  1  0
260 180   0   0  43   3  0  0
261 1010   0   0   0   0  0  0
262  60   2   0   0   0  0  0
263 180   0   0  44   3  0  0
264 1010   0   0   0   0  0  0
265 360   0   4   0   0  1  0
266 180   0   0  45   3  0  0
267 1010   0   0   0   0  0  0
268  60   2   0   0   0  0  0
269 180   0   0  46   3  0  0
270 1010   0   0   0   0  0  0
271 360   0   4   0   0  1  0
272 180   0   0  47   3  0  0
273 1010   0   0   0   0  0  0
274  60   2   0   0   0  0  0
275 180   0   0  48   3  0  0
276 1010   0   0   0   0  0  0
277 360   0   4   0   0  1  0
278 180   0   0  49   3  0  0
279 1010   0   0   0   0  0  0
280  60   2   0   0   0  0  0
281 180   0   0  50   3  0  0
282 1010   0   0   0   0  0  0
283 360   0   4   0   0  1  0
284 180   0   0  51   3  0  0
285 1010   0   0   0   0  0  0
286 176200   0   0   0   0  0  0
287  60   1   0   0   0  0  0
288 180   0   1   0   0  0  0
289 1160   0   0   0   0  0  0
290  60   2   0   0   0  0  0
291 180   0   0  52   3  0  0
292 1010   0   0   0   0  0  0
293 360   0   4   0   0  1  0
294 180   0   0  53   3  0  0
295 1010   0   0   0   0  0  0
296  60   2   0   0   0  0  0
297 180   0   0  54   3  0  0
298 1010   0   0   0   0  0  0
299 360   0   4   0   0  1  0
300 180   0   0  55   3  0  0
301 1010   0   0   0   0  0  0
302  60   2   0   0   0  0  0
303 180   0   0  56   3  0  0
304 1010   0   0   0   0  0  0
305 360   0   4   0   0  1  0
306 180   0   0  57   3  0  0
307 1010   0   0   0   0  0  0
308  60   2   0   0   0  0  0
309 180   0   0  58   3  0  0
310 1010   0   0   0   0  0  0
311 360   0   4   0   0  1  0
312 180   0   0  59   3  0  0
313 1010   0   0   0   0  0  0
314  60   2   0   0   0  0  0
315 180   0   0  60   3  0  0
316 1010   0   0   0   0  0  0
317 360   0   4   0   0  1  0
318 180   0   0  61   3  0  0
319 1010   0   0   0   0  0  0
320  60   2   0   0   0  0  0
321 180   0   0  62   3  0  0
322 1010   0   0   0   0  0  0
323 360   0   4   0   0  1  0
324 180   0   0  63   3  0  0
325 1010   0   0   0   0  0  0
326  60   2   0   0   0  0  0
327 180   0   0  64   3  0  0
328 1010   0   0   0   0  0  0
329 360   0   4   0   0  1  0
330 180   0   0  65   3  0  0
331 1010   0   0   0   0  0  0
332  60   2   0   0   0  0  0
333 180   0   0  66   3  0  0
334 1010   0   0   0   0  0  0
335 360   0   4   0   0  1  0
336 180   0   0  67   3  0  0
337 1010   0   0   0   0  0  0
338 176200   0   0   0   0  0  0
339  60   1   0   0   0  0  0
340 180   0   1   0   0  0  0
341 1160   0   0   0   0  0  0
342  60   2   0   0   0  0  0
343 180   0   0  67   3  0  0
344 1010   0   0   0   0  0  0
345 360   0   4   0   0  1  0
346 180   0   0  66   3  0  0
347 1010   0   0   0   0  0  0
348  60   2   0   0   0  0  0
349 180   0   0  65   3  0  0
350 1010   0   0   0   0  0  0
351 360   0   4   0   0  1  0
352 180   0   0  64   3  0  0
353 1010   0   0   0   0  0  0
354  60   2   0   0   0  0  0
355 180   0   0  63   3  0  0
356 1010   0   0   0   0  0  0
357 360   0   4   0   0  1  0
358 180   0   0  62   3  0  0
359 1010   0   0   0   0  0  0
360  60   2   0   0   0  0  0
361 180   0   0  61   3  0  0
362 1010   0   0   0   0  0  0
363 360   0   4   0   0  1  0
364 180   0   0  60   3  0  0
365 1010   0   0   0   0  0  0
366  60   2   0   0   0  0  0
367 180   0   0  59   3  0  0
368 1010   0   0   0   0  0  0
369 360   0   4   0   0  1  0
370 180   0   0  58   3  0  0
371 1010   0   0   0   0  0  0
372  60   2   0   0   0  0  0
373 180   0   0  57   3  0  0
374 1010   0   0   0   0  0  0
375 360   0   4   0   0  1  0
376 180   0   0  56   3  0  0
377 1010   0   0   0   0  0  0
378  60   2   0   0   0  0  0
379 180   0   0  55   3  0  0
380 1010   0   0   0   0  0  0
381 360   0   4   0   0  1  0
382 180   0   0  54   3  0  0
383 1010   0   0   0   0  0  0
384  60   2   0   0   0  0  0
385 180   0   0  53   3  0  0
386 1010   0   0   0   0  0  0
387 360   0   4   0   0  1  0
388 180   0   0  52   3  0  0
389 1010   0   0   0   0  0  0
390 176200   0   0   0   0  0  0
391  60   1   0   0   0  0  0
392 180   0   1   0   0  0  0
393 1160   0   0   0   0  0  0
394  60   2   0   0   0  0  0
395 180   0   0  51   3  0  0
396 1010   0   0   0   0  0  0
397 360   0   4   0   0  1  0
398 180   0   0  50   3  0  0
399 1010   0   0   0   0  0  0
400  60   2   0   0   0  0  0
401 180   0   0  49   3  0  0
402 1010   0   0   0   0  0  0
403 360   0   4   0   0  1  0
404 180   0   0  48   3  0  0
405 1010   0   0   0   0  0  0
406  60   2   0   0   0  0  0
407 180   0   0  47   3  0  0
408 1010   0   0   0   0  0  0
409 360   0   4   0   0  1  0
410 180   0   0  46   3  0  0
411 1010   0   0   0   0  0  0
412  60   2   0   0   0  0  0
413 180   0   0  45   3  0  0
414 1010   0   0   0   0  0  0
415 360   0   4   0   0  1  0
416 180   0   0  44   3  0  0
417 1010   0   0   0   0  0  0
418  60   2   0   0   0  0  0
419 180   0   0  43   3  0  0
420 1010   0   0   0   0  0  0
421 360   0   4   0   0  1  0
422 180   0   0  42   3  0  0
423 1010   0   0   0   0  0  0
424  60   2   0   0   0  0  0
425 180   0   0  41   3  0  0
426 1010   0   0   0   0  0  0
427 360   0   4   0   0  1  0
428 180   0   0  40   3  0  0
429 1010   0   0   0   0  0  0
430  60   2   0   0   0  0  0
431 180   0   0  39   3  0  0
432 1010   0   0   0   0  0  0
433 360   0   4   0   0  1  0
434 180   0   0  38   3  0  0
435 1010   0   0   0   0  0  0
436  60   2   0   0   0  0  0
437 180   0   0  37   3  0  0
438 1010   0   0   0   0  0  0
439 360   0   4   0   0  1  0
440 180   0   0  36   3  0  0
441 1010   0   0   0   0  0  0
442 176200   0   0   0   0  0  0
443  60   1   0   0   0  0  0
444 180   0   1   0   0  0  0
445 1160   0   0   0   0  0  0
446  60   2   0   0   0  0  0
447 180   0   0  35   3  0  0
448 1010   0   0   0   0  0  0
449 360   0   4   0   0  1  0
450 180   0   0  34   3  0  0
451 1010   0   0   0   0  0  0
452  60   2   0   0   0  0  0
453 180   0   0  33   3  0  0
454 1010   0   0   0   0  0  0
455 360   0   4   0   0  1  0
456 180   0   0  32   3  0  0
457 1010   0   0   0   0  0  0
458  60   2   0   0   0  0  0
459 180   0   0  31   3  0  0
460 1010   0   0   0   0  0  0
461 360   0   4   0   0  1  0
462 180   0   0  30   3  0  0
463 1010   0   0   0   0  0  0
464  60   2   0   0   0  0  0
465 180   0   0  29   3  0  0
466 1010   0   0   0   0  0  0
467 360   0   4   0   0  1  0
468 180   0   0  28   3  0  0
469 1010   0   0   0   0  0  0
470  60   2   0   0   0  0  0
471 180   0   0  27   3  0  0
472 1010   0   0   0   0  0  0
473 360   0   4   0   0  1  0
474 180   0   0  26   3  0  0
475 1010   0   0   0   0  0  0
476  60   2   0   0   0  0  0
477 180   0   0  25   3  0  0
478 1010   0   0   0   0  0  0
479 360   0   4   0   0  1  0
480 180   0   0  24   3  0  0
481 1010   0   0   0   0  0  0
482  60   2   0   0   0  0  0
483 180   0   0  23   3  0  0
484 1010   0   0   0   0  0  0
485 360   0   4   0   0  1  0
486 180   0   0  22   3  0  0
487 1010   0   0   0   0  0  0
488  60   2   0   0   0  0  0
489 180   0   0  21   3  0  0
490 1010   0   0   0   0  0  0
491 360   0   4   0   0  1  0
492 180   0   0  20   3  0  0
493 1010   0   0   0   0  0  0
494 176200   0   0   0   0  0  0
495  60   1   0   0   0  0  0
496 180   0   1   0   0  0  0
497 1160   0   0   0   0  0  0
498  60   2   0   0   0  0  0
499 180   0   0  19   3  0  0
500 1010   0   0   0   0  0  0
501 360   0   4   0   0  1  0
502 180   0   0  18   3  0  0
503 1010   0   0   0   0  0  0
504  60   2   0   0   0  0  0
505 180   0   0  17   3  0  0
506 1010   0   0   0   0  0  0
507 360   0   4   0   0  1  0
508 180   0   0  16   3  0  0
509 1010   0   0   0   0  0  0
510  60   2   0   0   0  0  0
511 180   0   0  15   3  0  0
512 1010   0   0   0   0  0  0
513 360   0   4   0   0  1  0
514 180   0   0  14   3  0  0
515 1010   0   0   0   0  0  0
516  60   2   0   0   0  0  0
517 180   0   0  13   3  0  0
518 1010   0   0   0   0  0  0
519 360   0   4   0   0  1  0
520 180   0   0  12   3  0  0
521 1010   0   0   0   0  0  0
522  60   2   0   0   0  0  0
523 180   0   0  11   3  0  0
524 1010   0   0   0   0  0  0
525 360   0   4   0   0  1  0
526 180   0   0  10   3  0  0
527 1010   0   0   0   0  0  0
528  60   2   0   0   0  0  0
529 180   0   0   9   3  0  0
530 1010   0   0   0   0  0  0
531 360   0   4   0   0  1  0
532 180   0   0   8   3  0  0
533 1010   0   0   0   0  0  0
534  60   2   0   0   0  0  0
535 180   0   0   7   3  0  0
536 1010   0   0   0   0  0  0
537 360   0   4   0   0  1  0
538 180   0   0   6   3  0  0
539 1010   0   0   0   0  0  0
540  60   2   0   0   0  0  0
541 180   0   0   5   3  0  0
542 1010   0   0   0   0  0  0
543 360   0   4   0   0  1  0
544 180   0   0   2   3  0  0
545 1010   0   0   0   0  0  0
546 176200   0   0   0   0  0  0

# Format of RF events:
# id amplitude mag_id phase_id time_shape_id delay freq phase
# ..        Hz   ....     ....          ....    us   Hz   rad
[RF]
1          625 1 2 3 100 0 0
2         1250 1 2 3 100 0 1.5708

# Format of trapezoid gradients:
# id amplitude rise flat fall delay
# ..      Hz/m   us   us   us    us
[TRAP]
 1      96590.9 200 1400 200   0
 2     -89488.6 200 1400 200   0
 3           -0 200 1400 200   0
 4      90909.1 200 3200 200   0
 5      89488.6 200 1400 200   0
 6      66761.4 200 1400 200   0
 7     -66761.4 200 1400 200   0
 8     -44034.1 200 1400 200   0
 9      44034.1 200 1400 200   0
10      21306.8 200 1400 200   0
11     -21306.8 200 1400 200   0
12      1420.45 200 1400 200   0
13     -1420.45 200 1400 200   0
14      24147.7 200 1400 200   0
15     -24147.7 200 1400 200   0
16        46875 200 1400 200   0
17       -46875 200 1400 200   0
18     -69602.3 200 1400 200   0
19      69602.3 200 1400 200   0
20      86647.7 200 1400 200   0
21     -86647.7 200 1400 200   0
22      63920.5 200 1400 200   0
23     -63920.5 200 1400 200   0
24     -41193.2 200 1400 200   0
25      41193.2 200 1400 200   0
26      18465.9 200 1400 200   0
27     -18465.9 200 1400 200   0
28     -4261.36 200 1400 200   0
29      4261.36 200 1400 200   0
30      26988.6 200 1400 200   0
31     -26988.6 200 1400 200   0
32     -49715.9 200 1400 200   0
33      49715.9 200 1400 200   0
34      72443.2 200 1400 200   0
35     -72443.2 200 1400 200   0
36     -83806.8 200 1400 200   0
37      83806.8 200 1400 200   0
38      61079.5 200 1400 200   0
39     -61079.5 200 1400 200   0
40     -38352.3 200 1400 200   0
41      38352.3 200 1400 200   0
42        15625 200 1400 200   0
43       -15625 200 1400 200   0
44     -7102.27 200 1400 200   0
45      7102.27 200 1400 200   0
46      29829.5 200 1400 200   0
47     -29829.5 200 1400 200   0
48      52556.8 200 1400 200   0
49     -52556.8 200 1400 200   0
50      75284.1 200 1400 200   0
51     -75284.1 200 1400 200   0
52     -80965.9 200 1400 200   0
53      80965.9 200 1400 200   0
54      58238.6 200 1400 200   0
55     -58238.6 200 1400 200   0
56      35511.4 200 1400 200   0
57     -35511.4 200 1400 200   0
58      12784.1 200 1400 200   0
59     -12784.1 200 1400 200   0
60      9943.18 200 1400 200   0
61     -9943.18 200 1400 200   0
62      32670.5 200 1400 200   0
63     -32670.5 200 1400 200   0
64      55397.7 200 1400 200   0
65     -55397.7 200 1400 200   0
66        78125 200 1400 200   0
67       -78125 200 1400 200   0

# Format of ADC events:
# id num dwell delay freq phase
# ..  ..    ns    us   Hz   rad
[ADC]
1 64 50000 200 0 0

# Sequence Shapes
[SHAPES]

shape_id 1
num_samples 2
1
1

shape_id 2
num_samples 2
0
0

shape_id 3
num_samples 2
0
400


[SIGNATURE]
# This is the hash of the Pulseq file, calculated right before the [SIGNATURE] section was added
# It can be reproduced/verified with md5sum if the file trimmed to the position right above [SIGNATURE]
# The new line character preceding [SIGNATURE] BELONGS to the signature (and needs to be stripped away for recalculating/verification)
Type md5
Hash 88c4f5e7196de55c822d07ce7b580648
