# Pulseq sequence file
# Created by PyPulseq

[VERSION]
major 1
minor 4
revision 0

[DEFINITIONS]
AdcRasterTime 1e-06 
BlockDurationRaster 1e-06 
GradientRasterTime 1e-06 
Name se_ptb 
RadiofrequencyRasterTime 1e-06 
TotalDuration 44.4 

# Format of blocks:
# NUM DUR RF  GX  GY  GZ  ADC  EXT
[BLOCKS]
   1 420   1   0   0   0  0  0
   2 600   0   1   0   0  0  0
   3 6480   0   0   0   0  0  0
   4 420   2   0   0   0  0  0
   5 600   0   0   2   3  0  0
   6 6100   0   0   0   0  0  0
   7 1200   0   4   0   0  1  0
   8 600   0   0   5   6  0  0
   9 6080   0   0   0   0  0  0
  10 420   2   0   0   0  0  0
  11 600   0   0   7   8  0  0
  12 6100   0   0   0   0  0  0
  13 1200   0   4   0   0  1  0
  14 600   0   0   9  10  0  0
  15 6080   0   0   0   0  0  0
  16 420   2   0   0   0  0  0
  17 600   0   0  11  12  0  0
  18 6100   0   0   0   0  0  0
  19 1200   0   4   0   0  1  0
  20 600   0   0  13  14  0  0
  21 6080   0   0   0   0  0  0
  22 420   2   0   0   0  0  0
  23 600   0   0  15  16  0  0
  24 6100   0   0   0   0  0  0
  25 1200   0   4   0   0  1  0
  26 600   0   0  17  18  0  0
  27 6080   0   0   0   0  0  0
  28 420   2   0   0   0  0  0
  29 600   0   0   2  15  0  0
  30 6100   0   0   0   0  0  0
  31 1200   0   4   0   0  1  0
  32 600   0   0   5  17  0  0
  33 6080   0   0   0   0  0  0
  34 420   2   0   0   0  0  0
  35 600   0   0   7  13  0  0
  36 6100   0   0   0   0  0  0
  37 1200   0   4   0   0  1  0
  38 600   0   0   9  11  0  0
  39 6080   0   0   0   0  0  0
  40 420   2   0   0   0  0  0
  41 600   0   0  19  20  0  0
  42 6100   0   0   0   0  0  0
  43 1200   0   4   0   0  1  0
  44 600   0   0  21  22  0  0
  45 6080   0   0   0   0  0  0
  46 487500   0   0   0   0  0  0
  47 420   1   0   0   0  0  0
  48 600   0   1   0   0  0  0
  49 6480   0   0   0   0  0  0
  50 420   2   0   0   0  0  0
  51 600   0   0   5   3  0  0
  52 6100   0   0   0   0  0  0
  53 1200   0   4   0   0  1  0
  54 600   0   0   2   6  0  0
  55 6080   0   0   0   0  0  0
  56 420   2   0   0   0  0  0
  57 600   0   0   9   8  0  0
  58 6100   0   0   0   0  0  0
  59 1200   0   4   0   0  1  0
  60 600   0   0   7  10  0  0
  61 6080   0   0   0   0  0  0
  62 420   2   0   0   0  0  0
  63 600   0   0  13  12  0  0
  64 6100   0   0   0   0  0  0
  65 1200   0   4   0   0  1  0
  66 600   0   0  11  14  0  0
  67 6080   0   0   0   0  0  0
  68 420   2   0   0   0  0  0
  69 600   0   0  23  24  0  0
  70 6100   0   0   0   0  0  0
  71 1200   0   4   0   0  1  0
  72 600   0   0  25  26  0  0
  73 6080   0   0   0   0  0  0
  74 420   2   0   0   0  0  0
  75 600   0   0   5  15  0  0
  76 6100   0   0   0   0  0  0
  77 1200   0   4   0   0  1  0
  78 600   0   0   2  17  0  0
  79 6080   0   0   0   0  0  0
  80 420   2   0   0   0  0  0
  81 600   0   0   9  13  0  0
  82 6100   0   0   0   0  0  0
  83 1200   0   4   0   0  1  0
  84 600   0   0   7  11  0  0
  85 6080   0   0   0   0  0  0
  86 420   2   0   0   0  0  0
  87 600   0   0  21  20  0  0
  88 6100   0   0   0   0  0  0
  89 1200   0   4   0   0  1  0
  90 600   0   0  19  22  0  0
  91 6080   0   0   0   0  0  0
  92 487500   0   0   0   0  0  0
  93 420   1   0   0   0  0  0
  94 600   0   1   0   0  0  0
  95 6480   0   0   0   0  0  0
  96 420   2   0   0   0  0  0
  97 600   0   0   2   6  0  0
  98 6100   0   0   0   0  0  0
  99 1200   0   4   0   0  1  0
 100 600   0   0   5   3  0  0
 101 6080   0   0   0   0  0  0
 102 420   2   0   0   0  0  0
 103 600   0   0  21  10  0  0
 104 6100   0   0   0   0  0  0
 105 1200   0   4   0   0  1  0
 106 600   0   0  19   8  0  0
 107 6080   0   0   0   0  0  0
 108 420   2   0   0   0  0  0
 109 600   0   0  13  14  0  0
 110 6100   0   0   0   0  0  0
 111 1200   0   4   0   0  1  0
 112 600   0   0  11  12  0  0
 113 6080   0   0   0   0  0  0
 114 420   2   0   0   0  0  0
 115 600   0   0  17  16  0  0
 116 6100   0   0   0   0  0  0
 117 1200   0   4   0   0  1  0
 118 600   0   0  15  18  0  0
 119 6080   0   0   0   0  0  0
 120 420   2   0   0   0  0  0
 121 600   0   0  15   5  0  0
 122 6100   0   0   0   0  0  0
 123 1200   0   4   0   0  1  0
 124 600   0   0  17   2  0  0
 125 6080   0   0   0   0  0  0
 126 420   2   0   0   0  0  0
 127 600   0   0  15  25  0  0
 128 6100   0   0   0   0  0  0
 129 1200   0   4   0   0  1  0
 130 600   0   0  17  23  0  0
 131 6080   0   0   0   0  0  0
 132 420   2   0   0   0  0  0
 133 600   0   0  22  19  0  0
 134 6100   0   0   0   0  0  0
 135 1200   0   4   0   0  1  0
 136 600   0   0  20  21  0  0
 137 6080   0   0   0   0  0  0
 138 487500   0   0   0   0  0  0
 139 420   1   0   0   0  0  0
 140 600   0   1   0   0  0  0
 141 6480   0   0   0   0  0  0
 142 420   2   0   0   0  0  0
 143 600   0   0   5   6  0  0
 144 6100   0   0   0   0  0  0
 145 1200   0   4   0   0  1  0
 146 600   0   0   2   3  0  0
 147 6080   0   0   0   0  0  0
 148 420   2   0   0   0  0  0
 149 600   0   0  21   8  0  0
 150 6100   0   0   0   0  0  0
 151 1200   0   4   0   0  1  0
 152 600   0   0  19  10  0  0
 153 6080   0   0   0   0  0  0
 154 420   2   0   0   0  0  0
 155 600   0   0  11  14  0  0
 156 6100   0   0   0   0  0  0
 157 1200   0   4   0   0  1  0
 158 600   0   0  13  12  0  0
 159 6080   0   0   0   0  0  0
 160 420   2   0   0   0  0  0
 161 600   0   0  17  18  0  0
 162 6100   0   0   0   0  0  0
 163 1200   0   4   0   0  1  0
 164 600   0   0  15  16  0  0
 165 6080   0   0   0   0  0  0
 166 420   2   0   0   0  0  0
 167 600   0   0  17   2  0  0
 168 6100   0   0   0   0  0  0
 169 1200   0   4   0   0  1  0
 170 600   0   0  15   5  0  0
 171 6080   0   0   0   0  0  0
 172 420   2   0   0   0  0  0
 173 600   0   0  15  23  0  0
 174 6100   0   0   0   0  0  0
 175 1200   0   4   0   0  1  0
 176 600   0   0  17  25  0  0
 177 6080   0   0   0   0  0  0
 178 420   2   0   0   0  0  0
 179 600   0   0  21  22  0  0
 180 6100   0   0   0   0  0  0
 181 1200   0   4   0   0  1  0
 182 600   0   0  19  20  0  0
 183 6080   0   0   0   0  0  0
 184 487500   0   0   0   0  0  0
 185 420   1   0   0   0  0  0
 186 600   0   1   0   0  0  0
 187 6480   0   0   0   0  0  0
 188 420   2   0   0   0  0  0
 189 600   0   0  11   3  0  0
 190 6100   0   0   0   0  0  0
 191 1200   0   4   0   0  1  0
 192 600   0   0  13   6  0  0
 193 6080   0   0   0   0  0  0
 194 420   2   0   0   0  0  0
 195 600   0   0  19  10  0  0
 196 6100   0   0   0   0  0  0
 197 1200   0   4   0   0  1  0
 198 600   0   0  21   8  0  0
 199 6080   0   0   0   0  0  0
 200 420   2   0   0   0  0  0
 201 600   0   0   2  18  0  0
 202 6100   0   0   0   0  0  0
 203 1200   0   4   0   0  1  0
 204 600   0   0   5  16  0  0
 205 6080   0   0   0   0  0  0
 206 420   2   0   0   0  0  0
 207 600   0   0  15  18  0  0
 208 6100   0   0   0   0  0  0
 209 1200   0   4   0   0  1  0
 210 600   0   0  17  16  0  0
 211 6080   0   0   0   0  0  0
 212 420   2   0   0   0  0  0
 213 600   0   0  15   2  0  0
 214 6100   0   0   0   0  0  0
 215 1200   0   4   0   0  1  0
 216 600   0   0  17   5  0  0
 217 6080   0   0   0   0  0  0
 218 420   2   0   0   0  0  0
 219 600   0   0  17  23  0  0
 220 6100   0   0   0   0  0  0
 221 1200   0   4   0   0  1  0
 222 600   0   0  15  25  0  0
 223 6080   0   0   0   0  0  0
 224 420   2   0   0   0  0  0
 225 600   0   0  19  22  0  0
 226 6100   0   0   0   0  0  0
 227 1200   0   4   0   0  1  0
 228 600   0   0  21  20  0  0
 229 6080   0   0   0   0  0  0
 230 487500   0   0   0   0  0  0
 231 420   1   0   0   0  0  0
 232 600   0   1   0   0  0  0
 233 6480   0   0   0   0  0  0
 234 420   2   0   0   0  0  0
 235 600   0   0  13   3  0  0
 236 6100   0   0   0   0  0  0
 237 1200   0   4   0   0  1  0
 238 600   0   0  11   6  0  0
 239 6080   0   0   0   0  0  0
 240 420   2   0   0   0  0  0
 241 600   0   0  19   8  0  0
 242 6100   0   0   0   0  0  0
 243 1200   0   4   0   0  1  0
 244 600   0   0  21  10  0  0
 245 6080   0   0   0   0  0  0
 246 420   2   0   0   0  0  0
 247 600   0   0   5  18  0  0
 248 6100   0   0   0   0  0  0
 249 1200   0   4   0   0  1  0
 250 600   0   0   2  16  0  0
 251 6080   0   0   0   0  0  0
 252 420   2   0   0   0  0  0
 253 600   0   0  23  26  0  0
 254 6100   0   0   0   0  0  0
 255 1200   0   4   0   0  1  0
 256 600   0   0  25  24  0  0
 257 6080   0   0   0   0  0  0
 258 420   2   0   0   0  0  0
 259 600   0   0  17   5  0  0
 260 6100   0   0   0   0  0  0
 261 1200   0   4   0   0  1  0
 262 600   0   0  15   2  0  0
 263 6080   0   0   0   0  0  0
 264 420   2   0   0   0  0  0
 265 600   0   0  23  17  0  0
 266 6100   0   0   0   0  0  0
 267 1200   0   4   0   0  1  0
 268 600   0   0  25  15  0  0
 269 6080   0   0   0   0  0  0
 270 420   2   0   0   0  0  0
 271 600   0   0  20  19  0  0
 272 6100   0   0   0   0  0  0
 273 1200   0   4   0   0  1  0
 274 600   0   0  22  21  0  0
 275 6080   0   0   0   0  0  0
 276 487500   0   0   0   0  0  0
 277 420   1   0   0   0  0  0
 278 600   0   1   0   0  0  0
 279 6480   0   0   0   0  0  0
 280 420   2   0   0   0  0  0
 281 600   0   0  11   6  0  0
 282 6100   0   0   0   0  0  0
 283 1200   0   4   0   0  1  0
 284 600   0   0  13   3  0  0
 285 6080   0   0   0   0  0  0
 286 420   2   0   0   0  0  0
 287 600   0   0  20  27  0  0
 288 6100   0   0   0   0  0  0
 289 1200   0   4   0   0  1  0
 290 600   0   0  22  28  0  0
 291 6080   0   0   0   0  0  0
 292 420   2   0   0   0  0  0
 293 600   0   0   2  16  0  0
 294 6100   0   0   0   0  0  0
 295 1200   0   4   0   0  1  0
 296 600   0   0   5  18  0  0
 297 6080   0   0   0   0  0  0
 298 420   2   0   0   0  0  0
 299 600   0   0   2  13  0  0
 300 6100   0   0   0   0  0  0
 301 1200   0   4   0   0  1  0
 302 600   0   0   5  11  0  0
 303 6080   0   0   0   0  0  0
 304 420   2   0   0   0  0  0
 305 600   0   0   2  17  0  0
 306 6100   0   0   0   0  0  0
 307 1200   0   4   0   0  1  0
[RF]
1          625 1 2 3 20 0 0
2         1250 1 2 3 20 0 1.5708

# Format of trapezoid gradients:
# id amplitude rise flat fall delay
# ..      Hz/m   us   us   us    us
[TRAP]
 1       113636 200  200 200   0
 2     -85227.3 200  200 200   0
 3      -176136 200  200 200   0
 4      90909.1 200  800 200   0
 5      85227.3 200  200 200   0
 6       176136 200  200 200   0
 7      17045.5 200  200 200   0
 8      -164773 200  200 200   0
 9     -17045.5 200  200 200   0
10       164773 200  200 200   0
11      73863.6 200  200 200   0
12      -119318 200  200 200   0
13     -73863.6 200  200 200   0
14       119318 200  200 200   0
15      39772.7 200  200 200   0
16       107955 200  200 200   0
17     -39772.7 200  200 200   0
18      -107955 200  200 200   0
19      5681.82 200  200 200   0
20     -51136.4 200  200 200   0
21     -5681.82 200  200 200   0
22      51136.4 200  200 200   0
23        62500 200  200 200   0
24      96590.9 200  200 200   0
25       -62500 200  200 200   0
26     -96590.9 200  200 200   0
27      -153409 200  200 200   0
28       153409 200  200 200   0
29      -130682 200  200 200   0
30       130682 200  200 200   0
31     -28409.1 200  200 200   0
32      28409.1 200  200 200   0
33      -142045 200  200 200   0
34       142045 200  200 200   0

# Format of ADC events:
# id num dwell delay freq phase
# ..  ..    ns    us   Hz   rad
[ADC]
1 800 1000 200 0 0

# Sequence Shapes
[SHAPES]

shape_id 1
num_samples 2
1
1

shape_id 2
num_samples 2
0
0

shape_id 3
num_samples 2
0
400


[SIGNATURE]
# This is the hash of the Pulseq file, calculated right before the [SIGNATURE] section was added
# It can be reproduced/verified with md5sum if the file trimmed to the position right above [SIGNATURE]
# The new line character preceding [SIGNATURE] BELONGS to the signature (and needs to be stripped away for recalculating/verification)
Type md5
Hash 09a8c49905400ebeb44cf2228d434a0e
