# Pulseq sequence file
# Created by PyPulseq

[VERSION]
major 1
minor 4
revision 0

[DEFINITIONS]
AdcRasterTime 1e-06 
BlockDurationRaster 1e-06 
GradientRasterTime 1e-06 
Name se_ptb 
RadiofrequencyRasterTime 1e-06 
TotalDuration 14 

# Format of blocks:
# NUM DUR RF  GX  GY  GZ  ADC  EXT
[BLOCKS]
  1 420   1   0   0   0  0  0
  2 2700   0   1   0   0  0  0
  3 2880   0   0   0   0  0  0
  4 420   2   0   0   0  0  0
  5 2700   0   0   2   3  0  0
  6 400   0   0   0   0  0  0
  7 5400   0   4   0   0  1  0
  8 2700   0   0   5   3  0  0
  9 380   0   0   0   0  0  0
 10 420   2   0   0   0  0  0
 11 2700   0   0   6   3  0  0
 12 400   0   0   0   0  0  0
 13 5400   0   4   0   0  1  0
 14 2700   0   0   7   3  0  0
 15 380   0   0   0   0  0  0
 16 420   2   0   0   0  0  0
 17 2700   0   0   8   3  0  0
 18 400   0   0   0   0  0  0
 19 5400   0   4   0   0  1  0
 20 2700   0   0   9   3  0  0
 21 380   0   0   0   0  0  0
 22 420   2   0   0   0  0  0
 23 2700   0   0  10   3  0  0
 24 400   0   0   0   0  0  0
 25 5400   0   4   0   0  1  0
 26 2700   0   0  11   3  0  0
 27 380   0   0   0   0  0  0
 28 420   2   0   0   0  0  0
 29 2700   0   0  12   3  0  0
 30 400   0   0   0   0  0  0
 31 5400   0   4   0   0  1  0
 32 2700   0   0  13   3  0  0
 33 380   0   0   0   0  0  0
 34 420   2   0   0   0  0  0
 35 2700   0   0  14   3  0  0
 36 400   0   0   0   0  0  0
 37 5400   0   4   0   0  1  0
 38 2700   0   0  15   3  0  0
 39 380   0   0   0   0  0  0
 40 420   2   0   0   0  0  0
 41 2700   0   0  16   3  0  0
 42 400   0   0   0   0  0  0
 43 5400   0   4   0   0  1  0
 44 2700   0   0  17   3  0  0
 45 380   0   0   0   0  0  0
 46 420   2   0   0   0  0  0
 47 2700   0   0  18   3  0  0
 48 400   0   0   0   0  0  0
 49 5400   0   4   0   0  1  0
 50 2700   0   0  19   3  0  0
 51 380   0   0   0   0  0  0
 52 420   2   0   0   0  0  0
 53 2700   0   0  20   3  0  0
 54 400   0   0   0   0  0  0
 55 5400   0   4   0   0  1  0
 56 2700   0   0  21   3  0  0
 57 380   0   0   0   0  0  0
 58 420   2   0   0   0  0  0
 59 2700   0   0  22   3  0  0
 60 400   0   0   0   0  0  0
 61 5400   0   4   0   0  1  0
 62 2700   0   0  23   3  0  0
 63 380   0   0   0   0  0  0
 64 420   2   0   0   0  0  0
 65 2700   0   0  24   3  0  0
 66 400   0   0   0   0  0  0
 67 5400   0   4   0   0  1  0
 68 2700   0   0  25   3  0  0
 69 380   0   0   0   0  0  0
 70 420   2   0   0   0  0  0
 71 2700   0   0  26   3  0  0
 72 400   0   0   0   0  0  0
 73 5400   0   4   0   0  1  0
 74 2700   0   0  27   3  0  0
 75 380   0   0   0   0  0  0
 76 420   2   0   0   0  0  0
 77 2700   0   0  28   3  0  0
 78 400   0   0   0   0  0  0
 79 5400   0   4   0   0  1  0
 80 2700   0   0  29   3  0  0
 81 380   0   0   0   0  0  0
 82 420   2   0   0   0  0  0
 83 2700   0   0  30   3  0  0
 84 400   0   0   0   0  0  0
 85 5400   0   4   0   0  1  0
 86 2700   0   0  31   3  0  0
 87 380   0   0   0   0  0  0
 88 420   2   0   0   0  0  0
 89 2700   0   0  32   3  0  0
 90 400   0   0   0   0  0  0
 91 5400   0   4   0   0  1  0
 92 2700   0   0  33   3  0  0
 93 380   0   0   0   0  0  0
 94 1814000   0   0   0   0  0  0
 95 420   1   0   0   0  0  0
 96 2700   0   1   0   0  0  0
 97 2880   0   0   0   0  0  0
 98 420   2   0   0   0  0  0
 99 2700   0   0   5   3  0  0
100 400   0   0   0   0  0  0
101 5400   0   4   0   0  1  0
102 2700   0   0   2   3  0  0
103 380   0   0   0   0  0  0
104 420   2   0   0   0  0  0
105 2700   0   0  34   3  0  0
106 400   0   0   0   0  0  0
107 5400   0   4   0   0  1  0
108 2700   0   0  35   3  0  0
109 380   0   0   0   0  0  0
110 420   2   0   0   0  0  0
111 2700   0   0   9   3  0  0
112 400   0   0   0   0  0  0
113 5400   0   4   0   0  1  0
114 2700   0   0   8   3  0  0
115 380   0   0   0   0  0  0
116 420   2   0   0   0  0  0
117 2700   0   0  36   3  0  0
118 400   0   0   0   0  0  0
119 5400   0   4   0   0  1  0
120 2700   0   0  37   3  0  0
121 380   0   0   0   0  0  0
122 420   2   0   0   0  0  0
123 2700   0   0  13   3  0  0
124 400   0   0   0   0  0  0
125 5400   0   4   0   0  1  0
126 2700   0   0  12   3  0  0
127 380   0   0   0   0  0  0
128 420   2   0   0   0  0  0
129 2700   0   0  38   3  0  0
130 400   0   0   0   0  0  0
131 5400   0   4   0   0  1  0
132 2700   0   0  39   3  0  0
133 380   0   0   0   0  0  0
134 420   2   0   0   0  0  0
135 2700   0   0  17   3  0  0
136 400   0   0   0   0  0  0
137 5400   0   4   0   0  1  0
138 2700   0   0  16   3  0  0
139 380   0   0   0   0  0  0
140 420   2   0   0   0  0  0
141 2700   0   0  40   3  0  0
142 400   0   0   0   0  0  0
143 5400   0   4   0   0  1  0
144 2700   0   0  41   3  0  0
145 380   0   0   0   0  0  0
146 420   2   0   0   0  0  0
147 2700   0   0  21   3  0  0
148 400   0   0   0   0  0  0
149 5400   0   4   0   0  1  0
150 2700   0   0  20   3  0  0
151 380   0   0   0   0  0  0
152 420   2   0   0   0  0  0
153 2700   0   0  42   3  0  0
154 400   0   0   0   0  0  0
155 5400   0   4   0   0  1  0
156 2700   0   0  43   3  0  0
157 380   0   0   0   0  0  0
158 420   2   0   0   0  0  0
159 2700   0   0  25   3  0  0
160 400   0   0   0   0  0  0
161 5400   0   4   0   0  1  0
162 2700   0   0  24   3  0  0
163 380   0   0   0   0  0  0
164 420   2   0   0   0  0  0
165 2700   0   0  44   3  0  0
166 400   0   0   0   0  0  0
167 5400   0   4   0   0  1  0
168 2700   0   0  45   3  0  0
169 380   0   0   0   0  0  0
170 420   2   0   0   0  0  0
171 2700   0   0  29   3  0  0
172 400   0   0   0   0  0  0
173 5400   0   4   0   0  1  0
174 2700   0   0  28   3  0  0
175 380   0   0   0   0  0  0
176 420   2   0   0   0  0  0
177 2700   0   0  46   3  0  0
178 400   0   0   0   0  0  0
179 5400   0   4   0   0  1  0
180 2700   0   0  47   3  0  0
181 380   0   0   0   0  0  0
182 420   2   0   0   0  0  0
183 2700   0   0  33   3  0  0
184 400   0   0   0   0  0  0
185 5400   0   4   0   0  1  0
186 2700   0   0  32   3  0  0
187 380   0   0   0   0  0  0
188 1814000   0   0   0   0  0  0
189 420   1   0   0   0  0  0
190 2700   0   1   0   0  0  0
191 2880   0   0   0   0  0  0
192 420   2   0   0   0  0  0
193 2700   0   0  48   3  0  0
194 400   0   0   0   0  0  0
195 5400   0   4   0   0  1  0
196 2700   0   0  49   3  0  0
197 380   0   0   0   0  0  0
198 420   2   0   0   0  0  0
199 2700   0   0  35   3  0  0
200 400   0   0   0   0  0  0
201 5400   0   4   0   0  1  0
202 2700   0   0  34   3  0  0
203 380   0   0   0   0  0  0
204 420   2   0   0   0  0  0
205 2700   0   0  50   3  0  0
206 400   0   0   0   0  0  0
207 5400   0   4   0   0  1  0
208 2700   0   0  51   3  0  0
209 380   0   0   0   0  0  0
210 420   2   0   0   0  0  0
211 2700   0   0  37   3  0  0
212 400   0   0   0   0  0  0
213 5400   0   4   0   0  1  0
214 2700   0   0  36   3  0  0
215 380   0   0   0   0  0  0
216 420   2   0   0   0  0  0
217 2700   0   0  52   3  0  0
218 400   0   0   0   0  0  0
219 5400   0   4   0   0  1  0
220 2700   0   0  53   3  0  0
221 380   0   0   0   0  0  0
222 420   2   0   0   0  0  0
223 2700   0   0  39   3  0  0
224 400   0   0   0   0  0  0
225 5400   0   4   0   0  1  0
226 2700   0   0  38   3  0  0
227 380   0   0   0   0  0  0
228 420   2   0   0   0  0  0
229 2700   0   0  54   3  0  0
230 400   0   0   0   0  0  0
231 5400   0   4   0   0  1  0
232 2700   0   0  55   3  0  0
233 380   0   0   0   0  0  0
234 420   2   0   0   0  0  0
235 2700   0   0  41   3  0  0
236 400   0   0   0   0  0  0
237 5400   0   4   0   0  1  0
238 2700   0   0  40   3  0  0
239 380   0   0   0   0  0  0
240 420   2   0   0   0  0  0
241 2700   0   0  56   3  0  0
242 400   0   0   0   0  0  0
243 5400   0   4   0   0  1  0
244 2700   0   0  57   3  0  0
245 380   0   0   0   0  0  0
246 420   2   0   0   0  0  0
247 2700   0   0  43   3  0  0
248 400   0   0   0   0  0  0
249 5400   0   4   0   0  1  0
250 2700   0   0  42   3  0  0
251 380   0   0   0   0  0  0
252 420   2   0   0   0  0  0
253 2700   0   0  58   3  0  0
254 400   0   0   0   0  0  0
255 5400   0   4   0   0  1  0
256 2700   0   0  59   3  0  0
257 380   0   0   0   0  0  0
258 420   2   0   0   0  0  0
259 2700   0   0  45   3  0  0
260 400   0   0   0   0  0  0
261 5400   0   4   0   0  1  0
262 2700   0   0  44   3  0  0
263 380   0   0   0   0  0  0
264 420   2   0   0   0  0  0
265 2700   0   0  60   3  0  0
266 400   0   0   0   0  0  0
267 5400   0   4   0   0  1  0
268 2700   0   0  61   3  0  0
269 380   0   0   0   0  0  0
270 420   2   0   0   0  0  0
271 2700   0   0  47   3  0  0
272 400   0   0   0   0  0  0
273 5400   0   4   0   0  1  0
274 2700   0   0  46   3  0  0
275 380   0   0   0   0  0  0
276 1826000   0   0   0   0  0  0
277 420   1   0   0   0  0  0
278 2700   0   1   0   0  0  0
279 2880   0   0   0   0  0  0
280 420   2   0   0   0  0  0
281 2700   0   0  49   3  0  0
282 400   0   0   0   0  0  0
283 5400   0   4   0   0  1  0
284 2700   0   0  48   3  0  0
285 380   0   0   0   0  0  0
286 420   2   0   0   0  0  0
287 2700   0   0  62   3  0  0
288 400   0   0   0   0  0  0
289 5400   0   4   0   0  1  0
290 2700   0   0  63   3  0  0
291 380   0   0   0   0  0  0
292 420   2   0   0   0  0  0
293 2700   0   0  51   3  0  0
294 400   0   0   0   0  0  0
295 5400   0   4   0   0  1  0
296 2700   0   0  50   3  0  0
297 380   0   0   0   0  0  0
298 420   2   0   0   0  0  0
299 2700   0   0  64   3  0  0
300 400   0   0   0   0  0  0
301 5400   0   4   0   0  1  0
302 2700   0   0  65   3  0  0
303 380   0   0   0   0  0  0
304 420   2   0   0   0  0  0
305 2700   0   0  53   3  0  0
306 400   0   0   0   0  0  0
307 5400   0   4   0   0  1  0
308 2700   0   0  52   3  0  0
309 380   0   0   0   0  0  0
310 420   2   0   0   0  0  0
311 2700   0   0  66   3  0  0
312 400   0   0   0   0  0  0
313 5400   0   4   0   0  1  0
314 2700   0   0  67   3  0  0
315 380   0   0   0   0  0  0
316 420   2   0   0   0  0  0
317 2700   0   0  55   3  0  0
318 400   0   0   0   0  0  0
319 5400   0   4   0   0  1  0
320 2700   0   0  54   3  0  0
321 380   0   0   0   0  0  0
322 420   2   0   0   0  0  0
323 2700   0   0  68   3  0  0
324 400   0   0   0   0  0  0
325 5400   0   4   0   0  1  0
326 2700   0   0  69   3  0  0
327 380   0   0   0   0  0  0
328 420   2   0   0   0  0  0
329 2700   0   0  57   3  0  0
330 400   0   0   0   0  0  0
331 5400   0   4   0   0  1  0
332 2700   0   0  56   3  0  0
333 380   0   0   0   0  0  0
334 420   2   0   0   0  0  0
335 2700   0   0  70   3  0  0
336 400   0   0   0   0  0  0
337 5400   0   4   0   0  1  0
338 2700   0   0  71   3  0  0
339 380   0   0   0   0  0  0
340 420   2   0   0   0  0  0
341 2700   0   0  59   3  0  0
342 400   0   0   0   0  0  0
343 5400   0   4   0   0  1  0
344 2700   0   0  58   3  0  0
345 380   0   0   0   0  0  0
346 420   2   0   0   0  0  0
347 2700   0   0  72   3  0  0
348 400   0   0   0   0  0  0
349 5400   0   4   0   0  1  0
350 2700   0   0  73   3  0  0
351 380   0   0   0   0  0  0
352 420   2   0   0   0  0  0
353 2700   0   0  61   3  0  0
354 400   0   0   0   0  0  0
355 5400   0   4   0   0  1  0
356 2700   0   0  60   3  0  0
357 380   0   0   0   0  0  0
358 420   2   0   0   0  0  0
359 2700   0   0  74   3  0  0
360 400   0   0   0   0  0  0
361 5400   0   4   0   0  1  0
362 2700   0   0  75   3  0  0
363 380   0   0   0   0  0  0
364 1826000   0   0   0   0  0  0
365 420   1   0   0   0  0  0
366 2700   0   1   0   0  0  0
367 2880   0   0   0   0  0  0
368 420   2   0   0   0  0  0
369 2700   0   0  76   3  0  0
370 400   0   0   0   0  0  0
371 5400   0   4   0   0  1  0
372 2700   0   0  77   3  0  0
373 380   0   0   0   0  0  0
374 420   2   0   0   0  0  0
375 2700   0   0  63   3  0  0
376 400   0   0   0   0  0  0
377 5400   0   4   0   0  1  0
378 2700   0   0  62   3  0  0
379 380   0   0   0   0  0  0
380 420   2   0   0   0  0  0
381 2700   0   0  78   3  0  0
382 400   0   0   0   0  0  0
383 5400   0   4   0   0  1  0
384 2700   0   0  79   3  0  0
385 380   0   0   0   0  0  0
386 420   2   0   0   0  0  0
387 2700   0   0  65   3  0  0
388 400   0   0   0   0  0  0
389 5400   0   4   0   0  1  0
390 2700   0   0  64   3  0  0
391 380   0   0   0   0  0  0
392 420   2   0   0   0  0  0
393 2700   0   0  80   3  0  0
394 400   0   0   0   0  0  0
395 5400   0   4   0   0  1  0
396 2700   0   0  81   3  0  0
397 380   0   0   0   0  0  0
398 420   2   0   0   0  0  0
399 2700   0   0  67   3  0  0
400 400   0   0   0   0  0  0
401 5400   0   4   0   0  1  0
402 2700   0   0  66   3  0  0
403 380   0   0   0   0  0  0
404 420   2   0   0   0  0  0
405 2700   0   0  82   3  0  0
406 400   0   0   0   0  0  0
407 5400   0   4   0   0  1  0
408 2700   0   0  83   3  0  0
409 380   0   0   0   0  0  0
410 420   2   0   0   0  0  0
411 2700   0   0  69   3  0  0
412 400   0   0   0   0  0  0
413 5400   0   4   0   0  1  0
414 2700   0   0  68   3  0  0
415 380   0   0   0   0  0  0
416 420   2   0   0   0  0  0
417 2700   0   0  84   3  0  0
418 400   0   0   0   0  0  0
419 5400   0   4   0   0  1  0
420 2700   0   0  85   3  0  0
421 380   0   0   0   0  0  0
422 420   2   0   0   0  0  0
423 2700   0   0  71   3  0  0
424 400   0   0   0   0  0  0
425 5400   0   4   0   0  1  0
426 2700   0   0  70   3  0  0
427 380   0   0   0   0  0  0
428 420   2   0   0   0  0  0
429 2700   0   0  86   3  0  0
430 400   0   0   0   0  0  0
431 5400   0   4   0   0  1  0
432 2700   0   0  87   3  0  0
433 380   0   0   0   0  0  0
434 420   2   0   0   0  0  0
435 2700   0   0  73   3  0  0
436 400   0   0   0   0  0  0
437 5400   0   4   0   0  1  0
438 2700   0   0  72   3  0  0
439 380   0   0   0   0  0  0
440 420   2   0   0   0  0  0
441 2700   0   0  88   3  0  0
442 400   0   0   0   0  0  0
443 5400   0   4   0   0  1  0
444 2700   0   0  89   3  0  0
445 380   0   0   0   0  0  0
446 420   2   0   0   0  0  0
447 2700   0   0  75   3  0  0
448 400   0   0   0   0  0  0
449 5400   0   4   0   0  1  0
450 2700   0   0  74   3  0  0
451 380   0   0   0   0  0  0
452 1826000   0   0   0   0  0  0
453 420   1   0   0   0  0  0
454 2700   0   1   0   0  0  0
455 2880   0   0   0   0  0  0
456 420   2   0   0   0  0  0
457 2700   0   0  77   3  0  0
458 400   0   0   0   0  0  0
459 5400   0   4   0   0  1  0
460 2700   0   0  76   3  0  0
461 380   0   0   0   0  0  0
462 420   2   0   0   0  0  0
463 2700   0   0  90   3  0  0
464 400   0   0   0   0  0  0
465 5400   0   4   0   0  1  0
466 2700   0   0  91   3  0  0
467 380   0   0   0   0  0  0
468 420   2   0   0   0  0  0
469 2700   0   0  79   3  0  0
470 400   0   0   0   0  0  0
471 5400   0   4   0   0  1  0
472 2700   0   0  78   3  0  0
473 380   0   0   0   0  0  0
474 420   2   0   0   0  0  0
475 2700   0   0  92   3  0  0
476 400   0   0   0   0  0  0
477 5400   0   4   0   0  1  0
478 2700   0   0  93   3  0  0
479 380   0   0   0   0  0  0
480 420   2   0   0   0  0  0
481 2700   0   0  81   3  0  0
482 400   0   0   0   0  0  0
483 5400   0   4   0   0  1  0
484 2700   0   0  80   3  0  0
485 380   0   0   0   0  0  0
486 420   2   0   0   0  0  0
487 2700   0   0  94   3  0  0
488 400   0   0   0   0  0  0
489 5400   0   4   0   0  1  0
490 2700   0   0  95   3  0  0
491 380   0   0   0   0  0  0
492 420   2   0   0   0  0  0
493 2700   0   0  83   3  0  0
494 400   0   0   0   0  0  0
495 5400   0   4   0   0  1  0
496 2700   0   0  82   3  0  0
497 380   0   0   0   0  0  0
498 420   2   0   0   0  0  0
499 2700   0   0  96   3  0  0
500 400   0   0   0   0  0  0
501 5400   0   4   0   0  1  0
502 2700   0   0  97   3  0  0
503 380   0   0   0   0  0  0
504 420   2   0   0   0  0  0
505 2700   0   0  85   3  0  0
506 400   0   0   0   0  0  0
507 5400   0   4   0   0  1  0
508 2700   0   0  84   3  0  0
509 380   0   0   0   0  0  0
510 420   2   0   0   0  0  0
511 2700   0   0  98   3  0  0
512 400   0   0   0   0  0  0
513 5400   0   4   0   0  1  0
514 2700   0   0  99   3  0  0
515 380   0   0   0   0  0  0
516 420   2   0   0   0  0  0
517 2700   0   0  87   3  0  0
518 400   0   0   0   0  0  0
519 5400   0   4   0   0  1  0
520 2700   0   0  86   3  0  0
521 380   0   0   0   0  0  0
522 420   2   0   0   0  0  0
523 2700   0   0 100   3  0  0
524 400   0   0   0   0  0  0
525 5400   0   4   0   0  1  0
526 2700   0   0 101   3  0  0
527 380   0   0   0   0  0  0
528 420   2   0   0   0  0  0
529 2700   0   0  89   3  0  0
530 400   0   0   0   0  0  0
531 5400   0   4   0   0  1  0
532 2700   0   0  88   3  0  0
533 380   0   0   0   0  0  0
534 420   2   0   0   0  0  0
535 2700   0   0 102   3  0  0
536 400   0   0   0   0  0  0
537 5400   0   4   0   0  1  0
538 2700   0   0 103   3  0  0
539 380   0   0   0   0  0  0
540 1826000   0   0   0   0  0  0
541 420   1   0   0   0  0  0
542 2700   0   1   0   0  0  0
543 2880   0   0   0   0  0  0
544 420   2   0   0   0  0  0
545 2700   0   0   7   3  0  0
546 400   0   0   0   0  0  0
547 5400   0   4   0   0  1  0
548 2700   0   0   6   3  0  0
549 380   0   0   0   0  0  0
550 420   2   0   0   0  0  0
551 2700   0   0  91   3  0  0
552 400   0   0   0   0  0  0
553 5400   0   4   0   0  1  0
554 2700   0   0  90   3  0  0
555 380   0   0   0   0  0  0
556 420   2   0   0   0  0  0
557 2700   0   0  11   3  0  0
558 400   0   0   0   0  0  0
559 5400   0   4   0   0  1  0
560 2700   0   0  10   3  0  0
561 380   0   0   0   0  0  0
562 420   2   0   0   0  0  0
563 2700   0   0  93   3  0  0
564 400   0   0   0   0  0  0
565 5400   0   4   0   0  1  0
566 2700   0   0  92   3  0  0
567 380   0   0   0   0  0  0
568 420   2   0   0   0  0  0
569 2700   0   0  15   3  0  0
570 400   0   0   0   0  0  0
571 5400   0   4   0   0  1  0
572 2700   0   0  14   3  0  0
573 380   0   0   0   0  0  0
574 420   2   0   0   0  0  0
575 2700   0   0  95   3  0  0
576 400   0   0   0   0  0  0
577 5400   0   4   0   0  1  0
578 2700   0   0  94   3  0  0
579 380   0   0   0   0  0  0
580 420   2   0   0   0  0  0
581 2700   0   0  19   3  0  0
582 400   0   0   0   0  0  0
583 5400   0   4   0   0  1  0
584 2700   0   0  18   3  0  0
585 380   0   0   0   0  0  0
586 420   2   0   0   0  0  0
587 2700   0   0  97   3  0  0
588 400   0   0   0   0  0  0
589 5400   0   4   0   0  1  0
590 2700   0   0  96   3  0  0
591 380   0   0   0   0  0  0
592 420   2   0   0   0  0  0
593 2700   0   0  23   3  0  0
594 400   0   0   0   0  0  0
595 5400   0   4   0   0  1  0
596 2700   0   0  22   3  0  0
597 380   0   0   0   0  0  0
598 420   2   0   0   0  0  0
599 2700   0   0  99   3  0  0
600 400   0   0   0   0  0  0
601 5400   0   4   0   0  1  0
602 2700   0   0  98   3  0  0
603 380   0   0   0   0  0  0
604 420   2   0   0   0  0  0
605 2700   0   0  27   3  0  0
606 400   0   0   0   0  0  0
607 5400   0   4   0   0  1  0
608 2700   0   0  26   3  0  0
609 380   0   0   0   0  0  0
610 420   2   0   0   0  0  0
611 2700   0   0 101   3  0  0
612 400   0   0   0   0  0  0
613 5400   0   4   0   0  1  0
614 2700   0   0 100   3  0  0
615 380   0   0   0   0  0  0
616 420   2   0   0   0  0  0
617 2700   0   0  31   3  0  0
618 400   0   0   0   0  0  0
619 5400   0   4   0   0  1  0
620 2700   0   0  30   3  0  0
621 380   0   0   0   0  0  0
622 420   2   0   0   0  0  0
623 2700   0   0 103   3  0  0
624 400   0   0   0   0  0  0
625 5400   0   4   0   0  1  0
626 2700   0   0 102   3  0  0
627 380   0   0   0   0  0  0
628 1826000   0   0   0   0  0  0

# Format of RF events:
# id amplitude mag_id phase_id time_shape_id delay freq phase
# ..        Hz   ....     ....          ....    us   Hz   rad
[RF]
1          625 1 2 3 20 0 0
2         1250 1 2 3 20 0 1.5708

# Format of trapezoid gradients:
# id amplitude rise flat fall delay
# ..      Hz/m   us   us   us    us
[TRAP]
 1      94545.5 200 2300 200   0
 2       -90000 200 2300 200   0
 3           -0 200 2300 200   0
 4      90909.1 200 5000 200   0
 5        90000 200 2300 200   0
 6      84545.5 200 2300 200   0
 7     -84545.5 200 2300 200   0
 8      77272.7 200 2300 200   0
 9     -77272.7 200 2300 200   0
10     -71818.2 200 2300 200   0
11      71818.2 200 2300 200   0
12     -64545.5 200 2300 200   0
13      64545.5 200 2300 200   0
14      59090.9 200 2300 200   0
15     -59090.9 200 2300 200   0
16     -51818.2 200 2300 200   0
17      51818.2 200 2300 200   0
18     -46363.6 200 2300 200   0
19      46363.6 200 2300 200   0
20     -39090.9 200 2300 200   0
21      39090.9 200 2300 200   0
22     -33636.4 200 2300 200   0
23      33636.4 200 2300 200   0
24      26363.6 200 2300 200   0
25     -26363.6 200 2300 200   0
26     -20909.1 200 2300 200   0
27      20909.1 200 2300 200   0
28      13636.4 200 2300 200   0
29     -13636.4 200 2300 200   0
30     -8181.82 200 2300 200   0
31      8181.82 200 2300 200   0
32     -909.091 200 2300 200   0
33      909.091 200 2300 200   0
34     -82727.3 200 2300 200   0
35      82727.3 200 2300 200   0
36       -70000 200 2300 200   0
37        70000 200 2300 200   0
38     -57272.7 200 2300 200   0
39      57272.7 200 2300 200   0
40      44545.5 200 2300 200   0
41     -44545.5 200 2300 200   0
42     -31818.2 200 2300 200   0
43      31818.2 200 2300 200   0
44      19090.9 200 2300 200   0
45     -19090.9 200 2300 200   0
46     -6363.64 200 2300 200   0
47      6363.64 200 2300 200   0
48      88181.8 200 2300 200   0
49     -88181.8 200 2300 200   0
50      75454.5 200 2300 200   0
51     -75454.5 200 2300 200   0
52      62727.3 200 2300 200   0
53     -62727.3 200 2300 200   0
54       -50000 200 2300 200   0
55        50000 200 2300 200   0
56      37272.7 200 2300 200   0
57     -37272.7 200 2300 200   0
58      24545.5 200 2300 200   0
59     -24545.5 200 2300 200   0
60      11818.2 200 2300 200   0
61     -11818.2 200 2300 200   0
62     -80909.1 200 2300 200   0
63      80909.1 200 2300 200   0
64     -68181.8 200 2300 200   0
65      68181.8 200 2300 200   0
66     -55454.5 200 2300 200   0
67      55454.5 200 2300 200   0
68     -42727.3 200 2300 200   0
69      42727.3 200 2300 200   0
70       -30000 200 2300 200   0
71        30000 200 2300 200   0
72      17272.7 200 2300 200   0
73     -17272.7 200 2300 200   0
74      4545.45 200 2300 200   0
75     -4545.45 200 2300 200   0
76     -86363.6 200 2300 200   0
77      86363.6 200 2300 200   0
78      73636.4 200 2300 200   0
79     -73636.4 200 2300 200   0
80      60909.1 200 2300 200   0
81     -60909.1 200 2300 200   0
82      48181.8 200 2300 200   0
83     -48181.8 200 2300 200   0
84     -35454.5 200 2300 200   0
85      35454.5 200 2300 200   0
86     -22727.3 200 2300 200   0
87      22727.3 200 2300 200   0
88        10000 200 2300 200   0
89       -10000 200 2300 200   0
90     -79090.9 200 2300 200   0
91      79090.9 200 2300 200   0
92      66363.6 200 2300 200   0
93     -66363.6 200 2300 200   0
94     -53636.4 200 2300 200   0
95      53636.4 200 2300 200   0
96     -40909.1 200 2300 200   0
97      40909.1 200 2300 200   0
98     -28181.8 200 2300 200   0
99      28181.8 200 2300 200   0
100      15454.5 200 2300 200   0
101     -15454.5 200 2300 200   0
102      2727.27 200 2300 200   0
103     -2727.27 200 2300 200   0

# Format of ADC events:
# id num dwell delay freq phase
# ..  ..    ns    us   Hz   rad
[ADC]
1 5000 1000 200 0 0

# Sequence Shapes
[SHAPES]

shape_id 1
num_samples 2
1
1

shape_id 2
num_samples 2
0
0

shape_id 3
num_samples 2
0
400


[SIGNATURE]
# This is the hash of the Pulseq file, calculated right before the [SIGNATURE] section was added
# It can be reproduced/verified with md5sum if the file trimmed to the position right above [SIGNATURE]
# The new line character preceding [SIGNATURE] BELONGS to the signature (and needs to be stripped away for recalculating/verification)
Type md5
Hash 2f59d936bdf7a148e868b0fb0f0ab2de
